,0
0,1.823
1,1.823
2,1.826
3,1.826
4,1.826
5,1.823
6,1.823
7,1.826
8,1.826
9,1.83
10,1.83
11,1.83
12,1.83
13,1.834
14,1.834
15,1.834
16,1.837
17,1.837
18,1.837
19,1.837
20,1.837
21,1.834
22,1.83
23,1.83
24,1.83
25,1.83
26,1.83
27,1.834
28,1.837
29,1.841
30,1.845
31,1.848
32,1.848
33,1.845
34,1.845
35,1.848
36,1.848
37,1.852
38,1.855
39,1.855
40,1.855
41,1.855
42,1.855
43,1.852
44,1.855
45,1.855
46,1.859
47,1.866
48,1.866
49,1.87
50,1.87
51,1.87
52,1.87
53,1.87
54,1.87
55,1.874
56,1.881
57,1.888
58,1.892
59,1.895
60,1.899
61,1.902
62,1.906
63,1.913
64,1.917
65,1.917
66,1.924
67,1.924
68,1.928
69,1.931
70,1.931
71,1.935
72,1.942
73,1.946
74,1.953
75,1.957
76,1.964
77,1.968
78,1.968
79,1.968
80,1.971
81,1.971
82,1.975
83,1.975
84,1.975
85,1.978
86,1.978
87,1.978
88,1.982
89,1.982
90,1.982
91,1.982
92,1.982
93,1.982
94,1.986
95,1.986
96,1.986
97,1.982
98,1.982
99,1.975
100,1.971
101,1.968
102,1.96
103,1.957
104,1.953
105,1.946
106,1.935
107,1.924
108,1.91
109,1.899
110,1.884
111,1.87
112,1.855
113,1.845
114,1.834
115,1.826
116,1.816
117,1.812
118,1.801
119,1.794
120,1.787
121,1.779
122,1.776
123,1.769
124,1.765
125,1.758
126,1.754
127,1.747
128,1.743
129,1.736
130,1.732
131,1.729
132,1.725
133,1.729
134,1.729
135,1.729
136,1.729
137,1.729
138,1.732
139,1.736
140,1.732
141,1.732
142,1.732
143,1.732
144,1.732
145,1.732
146,1.732
147,1.732
148,1.736
149,1.736
150,1.74
151,1.74
152,1.74
153,1.743
154,1.743
155,1.747
156,1.747
157,1.751
158,1.751
159,1.751
160,1.751
161,1.751
162,1.751
163,1.754
164,1.754
165,1.754
166,1.754
167,1.751
168,1.751
169,1.747
170,1.751
171,1.754
172,1.758
173,1.758
174,1.758
175,1.761
176,1.761
177,1.761
178,1.765
179,1.765
180,1.765
181,1.765
182,1.765
183,1.765
184,1.769
185,1.765
186,1.765
187,1.765
188,1.769
189,1.769
190,1.769
191,1.772
192,1.772
193,1.776
194,1.776
195,1.779
196,1.779
197,1.779
198,1.779
199,1.783
200,1.787
201,1.787
202,1.79
203,1.79
204,1.794
205,1.787
206,1.787
207,1.787
208,1.787
209,1.79
210,1.794
211,1.794
212,1.798
213,1.801
214,1.805
215,1.808
216,1.805
217,1.801
218,1.798
219,1.794
220,1.794
221,1.794
222,1.798
223,1.798
224,1.801
225,1.801
226,1.801
227,1.801
228,1.798
229,1.801
230,1.805
231,1.805
232,1.808
233,1.808
234,1.808
235,1.805
236,1.805
237,1.805
238,1.801
239,1.801
240,1.801
241,1.798
242,1.794
243,1.794
244,1.798
245,1.801
246,1.805
247,1.812
248,1.812
249,1.816
250,1.819
251,1.819
252,1.819
253,1.816
254,1.816
255,1.812
256,1.808
257,1.808
258,1.808
259,1.808
260,1.808
261,1.808
262,1.812
263,1.812
264,1.812
265,1.812
266,1.816
267,1.816
268,1.819
269,1.823
270,1.819
271,1.819
272,1.819
273,1.819
274,1.819
275,1.819
276,1.819
277,1.819
278,1.819
279,1.819
280,1.819
281,1.812
282,1.812
283,1.812
284,1.808
285,1.808
286,1.805
287,1.808
288,1.808
289,1.808
290,1.812
291,1.812
292,1.808
293,1.812
294,1.812
295,1.816
296,1.816
297,1.816
298,1.816
299,1.816
300,1.816
301,1.816
302,1.812
303,1.812
304,1.812
305,1.808
306,1.812
307,1.816
308,1.819
309,1.819
310,1.823
311,1.826
312,1.826
313,1.826
314,1.826
315,1.826
316,1.826
317,1.826
318,1.823
319,1.823
320,1.819
321,1.819
322,1.819
323,1.819
324,1.819
325,1.819
326,1.819
327,1.819
328,1.816
329,1.812
330,1.812
331,1.808
332,1.805
333,1.801
334,1.805
335,1.805
336,1.805
337,1.805
338,1.805
339,1.805
340,1.808
341,1.812
342,1.816
343,1.819
344,1.826
345,1.83
346,1.837
347,1.845
348,1.848
349,1.848
350,1.852
351,1.852
352,1.848
353,1.848
354,1.845
355,1.848
356,1.848
357,1.848
358,1.848
359,1.845
360,1.841
361,1.837
362,1.837
363,1.834
364,1.834
365,1.83
366,1.83
367,1.823
368,1.823
369,1.819
370,1.816
371,1.812
372,1.812
373,1.812
374,1.812
375,1.812
376,1.812
377,1.816
378,1.812
379,1.812
380,1.812
381,1.812
382,1.812
383,1.812
384,1.812
385,1.816
386,1.816
387,1.816
388,1.819
389,1.816
390,1.812
391,1.808
392,1.808
393,1.808
394,1.808
395,1.808
396,1.808
397,1.808
398,1.808
399,1.812
400,1.808
401,1.808
402,1.808
403,1.805
404,1.801
405,1.794
406,1.783
407,1.772
408,1.758
409,1.743
410,1.732
411,1.732
412,1.743
413,1.772
414,1.83
415,1.921
416,2.047
417,2.199
418,2.358
419,2.51
420,2.651
421,2.756
422,2.825
423,2.857
424,2.85
425,2.792
426,2.695
427,2.561
428,2.409
429,2.257
430,2.112
431,1.989
432,1.899
433,1.848
434,1.823
435,1.816
436,1.819
437,1.823
438,1.83
439,1.83
440,1.823
441,1.812
442,1.801
443,1.779
444,1.765
445,1.754
446,1.743
447,1.736
448,1.736
449,1.74
450,1.743
451,1.743
452,1.747
453,1.747
454,1.751
455,1.754
456,1.761
457,1.765
458,1.769
459,1.772
460,1.776
461,1.779
462,1.783
463,1.79
464,1.79
465,1.79
466,1.794
467,1.798
468,1.801
469,1.805
470,1.808
471,1.812
472,1.812
473,1.816
474,1.812
475,1.805
476,1.801
477,1.794
478,1.79
479,1.783
480,1.779
481,1.772
482,1.765
483,1.761
484,1.754
485,1.751
486,1.74
487,1.732
488,1.725
489,1.722
490,1.718
491,1.711
492,1.707
493,1.704
494,1.704
495,1.704
496,1.707
497,1.707
498,1.714
499,1.718
500,1.722
501,1.725
502,1.729
503,1.732
504,1.74
505,1.747
506,1.751
507,1.761
508,1.765
509,1.769
510,1.776
511,1.779
512,1.787
513,1.794
514,1.801
515,1.812
516,1.823
517,1.834
518,1.845
519,1.859
520,1.87
521,1.877
522,1.888
523,1.895
524,1.902
525,1.91
526,1.921
527,1.931
528,1.942
529,1.949
530,1.96
531,1.971
532,1.978
533,1.989
534,1.993
535,2.0
536,2.004
537,2.007
538,2.011
539,2.018
540,2.018
541,2.022
542,2.022
543,2.022
544,2.022
545,2.022
546,2.022
547,2.022
548,2.018
549,2.015
550,2.015
551,2.007
552,2.0
553,1.993
554,1.989
555,1.986
556,1.982
557,1.978
558,1.978
559,1.971
560,1.964
561,1.953
562,1.942
563,1.928
564,1.917
565,1.906
566,1.899
567,1.892
568,1.881
569,1.87
570,1.859
571,1.852
572,1.837
573,1.823
574,1.808
575,1.798
576,1.787
577,1.783
578,1.776
579,1.772
580,1.765
581,1.758
582,1.754
583,1.747
584,1.74
585,1.736
586,1.732
587,1.729
588,1.729
589,1.725
590,1.722
591,1.722
592,1.722
593,1.725
594,1.725
595,1.729
596,1.729
597,1.729
598,1.729
599,1.725
600,1.725
601,1.725
602,1.725
603,1.729
604,1.732
605,1.74
606,1.747
607,1.754
608,1.758
609,1.761
610,1.761
611,1.761
612,1.765
613,1.769
614,1.772
615,1.776
616,1.776
617,1.776
618,1.772
619,1.769
620,1.769
621,1.769
622,1.769
623,1.769
624,1.769
625,1.769
626,1.772
627,1.769
628,1.769
629,1.765
630,1.761
631,1.761
632,1.761
633,1.758
634,1.761
635,1.765
636,1.765
637,1.765
638,1.761
639,1.761
640,1.761
641,1.758
642,1.758
643,1.758
644,1.758
645,1.754
646,1.758
647,1.758
648,1.754
649,1.754
650,1.758
651,1.758
652,1.758
653,1.761
654,1.761
655,1.765
656,1.761
657,1.761
658,1.761
659,1.761
660,1.761
661,1.761
662,1.758
663,1.758
664,1.754
665,1.754
666,1.751
667,1.751
668,1.751
669,1.754
670,1.751
671,1.751
672,1.754
673,1.758
674,1.758
675,1.758
676,1.758
677,1.754
678,1.754
679,1.754
680,1.758
681,1.758
682,1.758
683,1.761
684,1.765
685,1.765
686,1.765
687,1.769
688,1.772
689,1.772
690,1.776
691,1.779
692,1.776
693,1.776
694,1.772
695,1.772
696,1.769
697,1.769
698,1.772
699,1.776
700,1.776
701,1.779
702,1.783
703,1.783
704,1.787
705,1.787
706,1.783
707,1.779
708,1.779
709,1.779
710,1.783
711,1.783
712,1.787
713,1.787
714,1.79
715,1.79
716,1.79
717,1.79
718,1.79
719,1.787
720,1.783
721,1.779
722,1.776
723,1.779
724,1.779
725,1.776
726,1.779
727,1.783
728,1.787
729,1.794
730,1.798
731,1.798
732,1.798
733,1.798
734,1.798
735,1.794
736,1.794
737,1.798
738,1.798
739,1.798
740,1.801
741,1.801
742,1.805
743,1.805
744,1.808
745,1.808
746,1.812
747,1.816
748,1.819
749,1.823
750,1.823
751,1.823
752,1.823
753,1.826
754,1.826
755,1.83
756,1.83
757,1.83
758,1.83
759,1.83
760,1.826
761,1.826
762,1.826
763,1.823
764,1.823
765,1.826
766,1.826
767,1.83
768,1.83
769,1.83
770,1.83
771,1.83
772,1.826
773,1.826
774,1.826
775,1.826
776,1.826
777,1.83
778,1.83
779,1.83
780,1.83
781,1.826
782,1.826
783,1.83
784,1.83
785,1.834
786,1.837
787,1.837
788,1.841
789,1.837
790,1.837
791,1.837
792,1.837
793,1.841
794,1.841
795,1.841
796,1.841
797,1.845
798,1.845
799,1.845
800,1.845
801,1.845
802,1.845
803,1.845
804,1.845
805,1.848
806,1.848
807,1.848
808,1.845
809,1.845
810,1.837
811,1.83
812,1.826
813,1.826
814,1.826
815,1.83
816,1.83
817,1.834
818,1.841
819,1.841
820,1.848
821,1.845
822,1.848
823,1.852
824,1.855
825,1.863
826,1.87
827,1.874
828,1.874
829,1.877
830,1.881
831,1.884
832,1.884
833,1.892
834,1.895
835,1.899
836,1.899
837,1.899
838,1.895
839,1.888
840,1.881
841,1.874
842,1.877
843,1.877
844,1.877
845,1.877
846,1.877
847,1.874
848,1.87
849,1.866
850,1.863
851,1.863
852,1.863
853,1.863
854,1.863
855,1.863
856,1.863
857,1.863
858,1.863
859,1.863
860,1.866
861,1.866
862,1.866
863,1.87
864,1.874
865,1.87
866,1.87
867,1.87
868,1.87
869,1.866
870,1.866
871,1.866
872,1.866
873,1.866
874,1.87
875,1.866
876,1.87
877,1.87
878,1.87
879,1.874
880,1.87
881,1.87
882,1.863
883,1.852
884,1.837
885,1.826
886,1.808
887,1.787
888,1.769
889,1.761
890,1.761
891,1.772
892,1.812
893,1.877
894,1.978
895,2.112
896,2.271
897,2.43
898,2.579
899,2.713
900,2.81
901,2.872
902,2.893
903,2.868
904,2.799
905,2.691
906,2.553
907,2.405
908,2.25
909,2.112
910,2.004
911,1.931
912,1.888
913,1.874
914,1.874
915,1.884
916,1.892
917,1.902
918,1.899
919,1.892
920,1.877
921,1.866
922,1.855
923,1.841
924,1.83
925,1.823
926,1.812
927,1.808
928,1.808
929,1.801
930,1.798
931,1.794
932,1.794
933,1.794
934,1.794
935,1.798
936,1.798
937,1.794
938,1.798
939,1.798
940,1.798
941,1.798
942,1.798
943,1.798
944,1.798
945,1.794
946,1.794
947,1.794
948,1.794
949,1.794
950,1.798
951,1.798
952,1.801
953,1.801
954,1.801
955,1.801
956,1.801
957,1.801
958,1.801
959,1.798
960,1.801
961,1.801
962,1.798
963,1.798
964,1.798
965,1.798
966,1.801
967,1.805
968,1.805
969,1.808
970,1.808
971,1.812
972,1.816
973,1.812
974,1.812
975,1.812
976,1.812
977,1.812
978,1.816
979,1.816
980,1.819
981,1.819
982,1.823
983,1.826
984,1.823
985,1.823
986,1.823
987,1.823
988,1.826
989,1.83
990,1.834
991,1.834
992,1.834
993,1.837
994,1.834
995,1.837
996,1.841
997,1.845
998,1.852
999,1.855
1000,1.859
1001,1.863
1002,1.866
1003,1.87
1004,1.874
1005,1.877
1006,1.881
1007,1.884
1008,1.892
1009,1.895
1010,1.902
1011,1.906
1012,1.91
1013,1.913
1014,1.917
1015,1.924
1016,1.924
1017,1.928
1018,1.928
1019,1.931
1020,1.931
1021,1.935
1022,1.935
1023,1.935
1024,1.935
1025,1.935
1026,1.939
1027,1.935
1028,1.939
1029,1.942
1030,1.946
1031,1.946
1032,1.949
1033,1.953
1034,1.957
1035,1.957
1036,1.96
1037,1.96
1038,1.957
1039,1.949
1040,1.946
1041,1.939
1042,1.935
1043,1.931
1044,1.924
1045,1.921
1046,1.913
1047,1.91
1048,1.899
1049,1.892
1050,1.884
1051,1.874
1052,1.866
1053,1.859
1054,1.848
1055,1.841
1056,1.83
1057,1.823
1058,1.816
1059,1.805
1060,1.798
1061,1.79
1062,1.787
1063,1.779
1064,1.776
1065,1.772
1066,1.769
1067,1.765
1068,1.761
1069,1.761
1070,1.761
1071,1.758
1072,1.758
1073,1.758
1074,1.758
1075,1.758
1076,1.758
1077,1.761
1078,1.761
1079,1.761
1080,1.758
1081,1.754
1082,1.754
1083,1.754
1084,1.754
1085,1.758
1086,1.758
1087,1.754
1088,1.751
1089,1.751
1090,1.754
1091,1.754
1092,1.754
1093,1.754
1094,1.758
1095,1.761
1096,1.765
1097,1.765
1098,1.765
1099,1.761
1100,1.761
1101,1.761
1102,1.758
1103,1.758
1104,1.761
1105,1.761
1106,1.761
1107,1.761
1108,1.761
1109,1.765
1110,1.761
1111,1.765
1112,1.765
1113,1.765
1114,1.769
1115,1.769
1116,1.772
1117,1.769
1118,1.769
1119,1.769
1120,1.772
1121,1.772
1122,1.772
1123,1.769
1124,1.769
1125,1.772
1126,1.772
1127,1.776
1128,1.776
1129,1.776
1130,1.779
1131,1.779
1132,1.783
1133,1.783
1134,1.787
1135,1.787
1136,1.787
1137,1.787
1138,1.787
1139,1.787
1140,1.787
1141,1.787
1142,1.787
1143,1.783
1144,1.783
1145,1.783
1146,1.783
1147,1.787
1148,1.787
1149,1.79
1150,1.79
1151,1.794
1152,1.794
1153,1.798
1154,1.798
1155,1.798
1156,1.794
1157,1.79
1158,1.79
1159,1.79
1160,1.79
1161,1.79
1162,1.794
1163,1.794
1164,1.794
1165,1.794
1166,1.794
1167,1.794
1168,1.794
1169,1.794
1170,1.794
1171,1.798
1172,1.798
1173,1.798
1174,1.798
1175,1.798
1176,1.798
1177,1.798
1178,1.794
1179,1.79
1180,1.787
1181,1.787
1182,1.787
1183,1.787
1184,1.787
1185,1.787
1186,1.787
1187,1.787
1188,1.79
1189,1.79
1190,1.794
1191,1.798
1192,1.798
1193,1.801
1194,1.805
1195,1.805
1196,1.805
1197,1.801
1198,1.801
1199,1.805
1200,1.808
1201,1.812
1202,1.816
1203,1.816
1204,1.816
1205,1.816
1206,1.812
1207,1.812
1208,1.812
1209,1.808
1210,1.808
1211,1.808
1212,1.805
1213,1.805
1214,1.805
1215,1.805
1216,1.805
1217,1.808
1218,1.808
1219,1.812
1220,1.816
1221,1.812
1222,1.812
1223,1.812
1224,1.808
1225,1.808
1226,1.808
1227,1.808
1228,1.808
1229,1.808
1230,1.808
1231,1.808
1232,1.801
1233,1.801
1234,1.801
1235,1.801
1236,1.801
1237,1.805
1238,1.808
1239,1.816
1240,1.823
1241,1.823
1242,1.826
1243,1.823
1244,1.823
1245,1.819
1246,1.819
1247,1.819
1248,1.819
1249,1.819
1250,1.819
1251,1.819
1252,1.816
1253,1.819
1254,1.816
1255,1.816
1256,1.816
1257,1.816
1258,1.816
1259,1.816
1260,1.816
1261,1.816
1262,1.816
1263,1.816
1264,1.812
1265,1.812
1266,1.812
1267,1.816
1268,1.819
1269,1.819
1270,1.819
1271,1.816
1272,1.812
1273,1.808
1274,1.808
1275,1.805
1276,1.801
1277,1.801
1278,1.801
1279,1.801
1280,1.801
1281,1.801
1282,1.798
1283,1.798
1284,1.794
1285,1.798
1286,1.798
1287,1.801
1288,1.801
1289,1.798
1290,1.798
1291,1.794
1292,1.79
1293,1.79
1294,1.787
1295,1.79
1296,1.79
1297,1.787
1298,1.787
1299,1.787
1300,1.787
1301,1.787
1302,1.787
1303,1.783
1304,1.783
1305,1.783
1306,1.783
1307,1.783
1308,1.779
1309,1.779
1310,1.779
1311,1.779
1312,1.776
1313,1.776
1314,1.769
1315,1.769
1316,1.769
1317,1.769
1318,1.776
1319,1.779
1320,1.783
1321,1.787
1322,1.794
1323,1.798
1324,1.801
1325,1.805
1326,1.808
1327,1.812
1328,1.812
1329,1.808
1330,1.805
1331,1.805
1332,1.801
1333,1.798
1334,1.794
1335,1.794
1336,1.79
1337,1.783
1338,1.779
1339,1.776
1340,1.769
1341,1.761
1342,1.758
1343,1.754
1344,1.754
1345,1.751
1346,1.751
1347,1.747
1348,1.747
1349,1.743
1350,1.743
1351,1.74
1352,1.736
1353,1.74
1354,1.74
1355,1.743
1356,1.747
1357,1.743
1358,1.743
1359,1.74
1360,1.736
1361,1.732
1362,1.732
1363,1.732
1364,1.729
1365,1.729
1366,1.729
1367,1.729
1368,1.725
1369,1.722
1370,1.718
1371,1.714
1372,1.714
1373,1.714
1374,1.711
1375,1.711
1376,1.704
1377,1.696
1378,1.685
1379,1.671
1380,1.657
1381,1.642
1382,1.628
1383,1.613
1384,1.606
1385,1.609
1386,1.631
1387,1.671
1388,1.743
1389,1.848
1390,1.986
1391,2.138
1392,2.286
1393,2.427
1394,2.546
1395,2.629
1396,2.676
1397,2.684
1398,2.644
1399,2.561
1400,2.441
1401,2.297
1402,2.145
1403,2.0
1404,1.877
1405,1.783
1406,1.722
1407,1.693
1408,1.685
1409,1.689
1410,1.7
1411,1.711
1412,1.714
1413,1.711
1414,1.7
1415,1.682
1416,1.664
1417,1.646
1418,1.631
1419,1.62
1420,1.609
1421,1.602
1422,1.602
1423,1.599
1424,1.595
1425,1.595
1426,1.599
1427,1.595
1428,1.591
1429,1.588
1430,1.584
1431,1.584
1432,1.581
1433,1.581
1434,1.577
1435,1.577
1436,1.577
1437,1.577
1438,1.577
1439,1.581
1440,1.581
1441,1.581
1442,1.577
1443,1.577
1444,1.577
1445,1.573
1446,1.573
1447,1.577
1448,1.573
1449,1.57
1450,1.57
1451,1.57
1452,1.57
1453,1.57
1454,1.57
1455,1.57
1456,1.57
1457,1.573
1458,1.573
1459,1.573
1460,1.573
1461,1.573
1462,1.573
1463,1.573
1464,1.57
1465,1.566
1466,1.566
1467,1.566
1468,1.566
1469,1.566
1470,1.562
1471,1.562
1472,1.562
1473,1.559
1474,1.559
1475,1.559
1476,1.559
1477,1.559
1478,1.559
1479,1.559
1480,1.559
1481,1.559
1482,1.555
1483,1.555
1484,1.552
1485,1.552
1486,1.552
1487,1.552
1488,1.555
1489,1.559
1490,1.562
1491,1.566
1492,1.562
1493,1.566
1494,1.566
1495,1.57
1496,1.577
1497,1.584
1498,1.588
1499,1.595
1500,1.599
1501,1.606
1502,1.606
1503,1.606
1504,1.609
1505,1.613
1506,1.617
1507,1.617
1508,1.62
1509,1.624
1510,1.628
1511,1.628
1512,1.631
1513,1.631
1514,1.631
1515,1.635
1516,1.638
1517,1.638
1518,1.642
1519,1.642
1520,1.646
1521,1.646
1522,1.649
1523,1.649
1524,1.649
1525,1.649
1526,1.649
1527,1.649
1528,1.646
1529,1.646
1530,1.646
1531,1.642
1532,1.638
1533,1.635
1534,1.635
1535,1.628
1536,1.624
1537,1.617
1538,1.609
1539,1.606
1540,1.599
1541,1.591
1542,1.584
1543,1.573
1544,1.562
1545,1.552
1546,1.541
1547,1.53
1548,1.519
1549,1.512
1550,1.501
1551,1.497
1552,1.49
1553,1.483
1554,1.476
1555,1.468
1556,1.461
1557,1.45
1558,1.443
1559,1.432
1560,1.425
1561,1.421
1562,1.418
1563,1.418
1564,1.418
1565,1.414
1566,1.414
1567,1.411
1568,1.407
1569,1.407
1570,1.407
1571,1.403
1572,1.403
1573,1.403
1574,1.403
1575,1.407
1576,1.407
1577,1.411
1578,1.411
1579,1.411
1580,1.411
1581,1.411
1582,1.411
1583,1.411
1584,1.411
1585,1.411
1586,1.414
1587,1.414
1588,1.414
1589,1.414
1590,1.414
1591,1.418
1592,1.418
1593,1.421
1594,1.421
1595,1.421
1596,1.425
1597,1.429
1598,1.432
1599,1.436
1600,1.436
1601,1.436
1602,1.436
1603,1.436
1604,1.436
1605,1.432
1606,1.432
1607,1.432
1608,1.436
1609,1.436
1610,1.443
1611,1.443
1612,1.447
1613,1.447
1614,1.45
1615,1.45
1616,1.45
1617,1.45
1618,1.45
1619,1.45
1620,1.454
1621,1.45
1622,1.454
1623,1.454
1624,1.454
1625,1.458
1626,1.458
1627,1.458
1628,1.458
1629,1.458
1630,1.458
1631,1.461
1632,1.461
1633,1.465
1634,1.465
1635,1.468
1636,1.472
1637,1.476
1638,1.476
1639,1.479
1640,1.479
1641,1.483
1642,1.483
1643,1.479
1644,1.483
1645,1.487
1646,1.49
1647,1.49
1648,1.494
1649,1.494
1650,1.497
1651,1.501
1652,1.501
1653,1.508
1654,1.508
1655,1.508
1656,1.508
1657,1.512
1658,1.512
1659,1.519
1660,1.523
1661,1.523
1662,1.523
1663,1.523
1664,1.523
1665,1.519
1666,1.519
1667,1.523
1668,1.526
1669,1.53
1670,1.534
1671,1.534
1672,1.537
1673,1.534
1674,1.534
1675,1.534
1676,1.534
1677,1.534
1678,1.534
1679,1.534
1680,1.534
1681,1.537
1682,1.537
1683,1.541
1684,1.544
1685,1.548
1686,1.552
1687,1.552
1688,1.555
1689,1.555
1690,1.559
1691,1.559
1692,1.562
1693,1.566
1694,1.57
1695,1.57
1696,1.573
1697,1.573
1698,1.573
1699,1.573
1700,1.573
1701,1.573
1702,1.573
1703,1.573
1704,1.573
1705,1.573
1706,1.573
1707,1.577
1708,1.577
1709,1.581
1710,1.584
1711,1.588
1712,1.591
1713,1.591
1714,1.595
1715,1.595
1716,1.599
1717,1.602
1718,1.606
1719,1.606
1720,1.609
1721,1.609
1722,1.609
1723,1.609
1724,1.609
1725,1.609
1726,1.609
1727,1.609
1728,1.613
1729,1.617
1730,1.624
1731,1.628
1732,1.631
1733,1.635
1734,1.638
1735,1.642
1736,1.646
1737,1.649
1738,1.657
1739,1.66
1740,1.664
1741,1.66
1742,1.664
1743,1.664
1744,1.667
1745,1.667
1746,1.667
1747,1.671
1748,1.671
1749,1.675
1750,1.678
1751,1.678
1752,1.682
1753,1.682
1754,1.685
1755,1.685
1756,1.689
1757,1.693
1758,1.696
1759,1.7
1760,1.704
1761,1.711
1762,1.711
1763,1.711
1764,1.714
1765,1.718
1766,1.722
1767,1.722
1768,1.722
1769,1.725
1770,1.729
1771,1.732
1772,1.74
1773,1.74
1774,1.74
1775,1.743
1776,1.747
1777,1.747
1778,1.751
1779,1.754
1780,1.754
1781,1.754
1782,1.754
1783,1.758
1784,1.761
1785,1.765
1786,1.772
1787,1.772
1788,1.776
1789,1.776
1790,1.776
1791,1.776
1792,1.779
1793,1.783
1794,1.79
1795,1.794
1796,1.801
1797,1.805
1798,1.812
1799,1.816
1800,1.819
1801,1.819
1802,1.819
1803,1.823
1804,1.826
1805,1.826
1806,1.826
1807,1.83
1808,1.834
1809,1.834
1810,1.834
1811,1.834
1812,1.834
1813,1.837
1814,1.841
1815,1.845
1816,1.845
1817,1.845
1818,1.841
1819,1.841
1820,1.841
1821,1.841
1822,1.841
1823,1.845
1824,1.845
1825,1.845
1826,1.852
1827,1.848
1828,1.848
1829,1.852
1830,1.852
1831,1.852
1832,1.855
1833,1.859
1834,1.863
1835,1.87
1836,1.877
1837,1.884
1838,1.892
1839,1.899
1840,1.906
1841,1.913
1842,1.921
1843,1.928
1844,1.935
1845,1.946
1846,1.953
1847,1.957
1848,1.964
1849,1.964
1850,1.968
1851,1.971
1852,1.968
1853,1.968
1854,1.964
1855,1.964
1856,1.964
1857,1.96
1858,1.96
1859,1.96
1860,1.957
1861,1.957
1862,1.953
1863,1.953
1864,1.957
1865,1.96
1866,1.964
1867,1.968
1868,1.968
1869,1.975
1870,1.978
1871,1.982
1872,1.989
1873,1.993
1874,1.996
1875,2.004
1876,2.007
1877,2.007
1878,2.007
1879,2.007
1880,2.011
1881,2.007
1882,2.007
1883,2.007
1884,2.007
1885,2.007
1886,2.011
1887,2.011
1888,2.011
1889,2.011
1890,2.015
1891,2.022
1892,2.022
1893,2.029
1894,2.029
1895,2.025
1896,2.018
1897,2.007
1898,1.996
1899,1.982
1900,1.968
1901,1.957
1902,1.949
1903,1.953
1904,1.968
1905,2.004
1906,2.072
1907,2.181
1908,2.326
1909,2.488
1910,2.655
1911,2.807
1912,2.94
1913,3.035
1914,3.085
1915,3.1
1916,3.067
1917,2.991
1918,2.875
1919,2.734
1920,2.579
1921,2.43
1922,2.304
1923,2.206
1924,2.138
1925,2.101
1926,2.094
1927,2.101
1928,2.119
1929,2.138
1930,2.148
1931,2.156
1932,2.152
1933,2.141
1934,2.127
1935,2.105
1936,2.087
1937,2.072
1938,2.065
1939,2.065
1940,2.065
1941,2.069
1942,2.072
1943,2.076
1944,2.08
1945,2.08
1946,2.083
1947,2.083
1948,2.087
1949,2.087
1950,2.091
1951,2.094
1952,2.098
1953,2.098
1954,2.098
1955,2.098
1956,2.101
1957,2.101
1958,2.105
1959,2.109
1960,2.109
1961,2.112
1962,2.112
1963,2.116
1964,2.116
1965,2.119
1966,2.127
1967,2.13
1968,2.134
1969,2.138
1970,2.141
1971,2.145
1972,2.148
1973,2.152
1974,2.152
1975,2.156
1976,2.159
1977,2.163
1978,2.163
1979,2.163
1980,2.166
1981,2.166
1982,2.17
1983,2.17
1984,2.17
1985,2.17
1986,2.174
1987,2.174
1988,2.181
1989,2.177
1990,2.181
1991,2.185
1992,2.188
1993,2.192
1994,2.195
1995,2.195
1996,2.199
1997,2.203
1998,2.203
1999,2.21
2000,2.21
2001,2.217
2002,2.221
2003,2.224
2004,2.228
2005,2.232
2006,2.239
2007,2.246
2008,2.253
2009,2.264
2010,2.268
2011,2.268
2012,2.271
2013,2.275
2014,2.282
2015,2.286
2016,2.289
2017,2.297
2018,2.304
2019,2.311
2020,2.318
2021,2.318
2022,2.322
2023,2.326
2024,2.329
2025,2.333
2026,2.336
2027,2.34
2028,2.347
2029,2.355
2030,2.362
2031,2.369
2032,2.373
2033,2.376
2034,2.383
2035,2.387
2036,2.391
2037,2.391
2038,2.391
2039,2.391
2040,2.391
2041,2.394
2042,2.402
2043,2.405
2044,2.409
2045,2.412
2046,2.42
2047,2.423
2048,2.427
2049,2.427
2050,2.427
2051,2.423
2052,2.42
2053,2.416
2054,2.412
2055,2.405
2056,2.402
2057,2.394
2058,2.387
2059,2.383
2060,2.376
2061,2.369
2062,2.358
2063,2.351
2064,2.344
2065,2.329
2066,2.318
2067,2.311
2068,2.304
2069,2.293
2070,2.289
2071,2.282
2072,2.275
2073,2.268
2074,2.264
2075,2.261
2076,2.253
2077,2.25
2078,2.25
2079,2.246
2080,2.242
2081,2.242
2082,2.239
2083,2.239
2084,2.235
2085,2.232
2086,2.224
2087,2.221
2088,2.217
2089,2.213
2090,2.213
2091,2.213
2092,2.213
2093,2.217
2094,2.217
2095,2.217
2096,2.217
2097,2.21
2098,2.206
2099,2.203
2100,2.199
2101,2.199
2102,2.199
2103,2.203
2104,2.206
2105,2.213
2106,2.213
2107,2.221
2108,2.221
2109,2.221
2110,2.224
2111,2.228
2112,2.228
2113,2.228
2114,2.228
2115,2.224
2116,2.224
2117,2.221
2118,2.221
2119,2.224
2120,2.228
2121,2.235
2122,2.239
2123,2.242
2124,2.242
2125,2.242
2126,2.246
2127,2.246
2128,2.253
2129,2.253
2130,2.253
2131,2.253
2132,2.253
2133,2.257
2134,2.261
2135,2.264
2136,2.264
2137,2.264
2138,2.264
2139,2.268
2140,2.264
2141,2.268
2142,2.271
2143,2.275
2144,2.275
2145,2.279
2146,2.279
2147,2.282
2148,2.282
2149,2.282
2150,2.286
2151,2.289
2152,2.293
2153,2.293
2154,2.3
2155,2.3
2156,2.304
2157,2.308
2158,2.311
2159,2.318
2160,2.326
2161,2.333
2162,2.336
2163,2.344
2164,2.347
2165,2.355
2166,2.355
2167,2.358
2168,2.355
2169,2.358
2170,2.358
2171,2.362
2172,2.358
2173,2.358
2174,2.358
2175,2.355
2176,2.355
2177,2.355
2178,2.355
2179,2.358
2180,2.362
2181,2.362
2182,2.365
2183,2.365
2184,2.362
2185,2.365
2186,2.365
2187,2.365
2188,2.369
2189,2.373
2190,2.376
2191,2.38
2192,2.383
2193,2.387
2194,2.383
2195,2.383
2196,2.383
2197,2.38
2198,2.38
2199,2.383
2200,2.383
2201,2.387
2202,2.391
2203,2.391
2204,2.398
2205,2.398
2206,2.402
2207,2.405
2208,2.409
2209,2.409
2210,2.412
2211,2.409
2212,2.409
2213,2.409
2214,2.412
2215,2.412
2216,2.412
2217,2.412
2218,2.416
2219,2.42
2220,2.42
2221,2.423
2222,2.423
2223,2.427
2224,2.427
2225,2.434
2226,2.43
2227,2.43
2228,2.43
2229,2.43
2230,2.427
2231,2.427
2232,2.427
2233,2.427
2234,2.43
2235,2.434
2236,2.441
2237,2.438
2238,2.441
2239,2.445
2240,2.441
2241,2.438
2242,2.434
2243,2.43
2244,2.427
2245,2.427
2246,2.427
2247,2.434
2248,2.43
2249,2.43
2250,2.43
2251,2.427
2252,2.427
2253,2.423
2254,2.427
2255,2.43
2256,2.434
2257,2.438
2258,2.445
2259,2.441
2260,2.445
2261,2.445
2262,2.449
2263,2.449
2264,2.452
2265,2.456
2266,2.456
2267,2.459
2268,2.463
2269,2.463
2270,2.463
2271,2.463
2272,2.467
2273,2.467
2274,2.467
2275,2.467
2276,2.467
2277,2.467
2278,2.463
2279,2.463
2280,2.459
2281,2.459
2282,2.459
2283,2.463
2284,2.467
2285,2.467
2286,2.47
2287,2.47
2288,2.47
2289,2.467
2290,2.463
2291,2.456
2292,2.456
2293,2.456
2294,2.456
2295,2.456
2296,2.456
2297,2.456
2298,2.456
2299,2.456
2300,2.456
2301,2.459
2302,2.463
2303,2.467
2304,2.467
2305,2.47
2306,2.47
2307,2.47
2308,2.47
2309,2.47
2310,2.47
2311,2.474
2312,2.478
2313,2.478
2314,2.478
2315,2.481
2316,2.481
2317,2.481
2318,2.474
2319,2.47
2320,2.467
2321,2.467
2322,2.463
2323,2.463
2324,2.459
2325,2.459
2326,2.459
2327,2.456
2328,2.456
2329,2.452
2330,2.445
2331,2.441
2332,2.441
2333,2.445
2334,2.445
2335,2.445
2336,2.445
2337,2.441
2338,2.438
2339,2.434
2340,2.43
2341,2.43
2342,2.43
2343,2.434
2344,2.441
2345,2.438
2346,2.438
2347,2.441
2348,2.445
2349,2.449
2350,2.456
2351,2.463
2352,2.47
2353,2.481
2354,2.485
2355,2.488
2356,2.485
2357,2.485
2358,2.485
2359,2.485
2360,2.485
2361,2.485
2362,2.485
2363,2.485
2364,2.481
2365,2.481
2366,2.481
2367,2.474
2368,2.474
2369,2.47
2370,2.47
2371,2.467
2372,2.463
2373,2.463
2374,2.456
2375,2.452
2376,2.445
2377,2.434
2378,2.427
2379,2.42
2380,2.42
2381,2.423
2382,2.427
2383,2.43
2384,2.434
2385,2.438
2386,2.438
2387,2.441
2388,2.441
2389,2.441
2390,2.441
2391,2.445
2392,2.445
2393,2.445
2394,2.445
2395,2.441
2396,2.438
2397,2.438
2398,2.438
2399,2.434
2400,2.438
2401,2.434
2402,2.434
2403,2.434
2404,2.43
2405,2.43
2406,2.427
2407,2.42
2408,2.416
2409,2.409
2410,2.398
2411,2.387
2412,2.373
2413,2.355
2414,2.336
2415,2.318
2416,2.304
2417,2.304
2418,2.315
2419,2.347
2420,2.412
2421,2.51
2422,2.648
2423,2.807
2424,2.962
2425,3.11
2426,3.241
2427,3.335
2428,3.385
2429,3.4
2430,3.367
2431,3.295
2432,3.172
2433,3.027
2434,2.868
2435,2.713
2436,2.579
2437,2.474
2438,2.405
2439,2.369
2440,2.358
2441,2.362
2442,2.376
2443,2.383
2444,2.394
2445,2.394
2446,2.391
2447,2.376
2448,2.362
2449,2.344
2450,2.326
2451,2.311
2452,2.3
2453,2.289
2454,2.282
2455,2.282
2456,2.279
2457,2.279
2458,2.279
2459,2.279
2460,2.279
2461,2.279
2462,2.275
2463,2.279
2464,2.271
2465,2.268
2466,2.268
2467,2.268
2468,2.271
2469,2.271
2470,2.268
2471,2.261
2472,2.257
2473,2.25
2474,2.246
2475,2.239
2476,2.239
2477,2.235
2478,2.232
2479,2.232
2480,2.232
2481,2.228
2482,2.224
2483,2.224
2484,2.224
2485,2.228
2486,2.228
2487,2.232
2488,2.235
2489,2.235
2490,2.232
2491,2.228
2492,2.228
2493,2.224
2494,2.224
2495,2.224
2496,2.224
2497,2.221
2498,2.221
2499,2.217
2500,2.217
2501,2.213
2502,2.213
2503,2.21
2504,2.206
2505,2.203
2506,2.206
2507,2.206
2508,2.206
2509,2.206
2510,2.203
2511,2.203
2512,2.199
2513,2.199
2514,2.199
2515,2.203
2516,2.206
2517,2.206
2518,2.206
2519,2.206
2520,2.206
2521,2.203
2522,2.203
2523,2.203
2524,2.203
2525,2.206
2526,2.203
2527,2.206
2528,2.206
2529,2.203
2530,2.206
2531,2.21
2532,2.213
2533,2.221
2534,2.224
2535,2.228
2536,2.232
2537,2.232
2538,2.235
2539,2.235
2540,2.235
2541,2.235
2542,2.239
2543,2.242
2544,2.242
2545,2.246
2546,2.246
2547,2.25
2548,2.25
2549,2.25
2550,2.246
2551,2.25
2552,2.25
2553,2.246
2554,2.246
2555,2.246
2556,2.25
2557,2.246
2558,2.239
2559,2.235
2560,2.232
2561,2.228
2562,2.228
2563,2.232
2564,2.228
2565,2.224
2566,2.221
2567,2.213
2568,2.203
2569,2.199
2570,2.192
2571,2.188
2572,2.181
2573,2.177
2574,2.174
2575,2.166
2576,2.159
2577,2.148
2578,2.138
2579,2.123
2580,2.112
2581,2.098
2582,2.087
2583,2.072
2584,2.062
2585,2.047
2586,2.036
2587,2.029
2588,2.025
2589,2.018
2590,2.015
2591,2.011
2592,2.007
2593,1.996
2594,1.993
2595,1.986
2596,1.982
2597,1.975
2598,1.971
2599,1.968
2600,1.964
2601,1.964
2602,1.96
2603,1.96
2604,1.957
2605,1.957
2606,1.953
2607,1.949
2608,1.949
2609,1.946
2610,1.946
2611,1.942
2612,1.939
2613,1.931
2614,1.928
2615,1.921
2616,1.921
2617,1.917
2618,1.917
2619,1.913
2620,1.913
2621,1.913
2622,1.913
2623,1.913
2624,1.91
2625,1.913
2626,1.913
2627,1.91
2628,1.91
2629,1.906
2630,1.906
2631,1.906
2632,1.906
2633,1.902
2634,1.899
2635,1.899
2636,1.899
2637,1.899
2638,1.899
2639,1.899
2640,1.899
2641,1.895
2642,1.892
2643,1.888
2644,1.884
2645,1.884
2646,1.881
2647,1.881
2648,1.881
2649,1.884
2650,1.884
2651,1.888
2652,1.888
2653,1.888
2654,1.884
2655,1.884
2656,1.881
2657,1.884
2658,1.881
2659,1.881
2660,1.881
2661,1.877
2662,1.874
2663,1.866
2664,1.863
2665,1.859
2666,1.859
2667,1.863
2668,1.866
2669,1.866
2670,1.874
2671,1.877
2672,1.877
2673,1.881
2674,1.884
2675,1.884
2676,1.881
2677,1.881
2678,1.877
2679,1.881
2680,1.877
2681,1.877
2682,1.874
2683,1.874
2684,1.874
2685,1.874
2686,1.874
2687,1.874
2688,1.874
2689,1.87
2690,1.87
2691,1.866
2692,1.863
2693,1.863
2694,1.859
2695,1.859
2696,1.863
2697,1.863
2698,1.866
2699,1.866
2700,1.87
2701,1.866
2702,1.863
2703,1.859
2704,1.855
2705,1.852
2706,1.848
2707,1.841
2708,1.837
2709,1.834
2710,1.83
2711,1.826
2712,1.826
2713,1.826
2714,1.83
2715,1.83
2716,1.83
2717,1.834
2718,1.834
2719,1.83
2720,1.83
2721,1.826
2722,1.826
2723,1.826
2724,1.83
2725,1.834
2726,1.834
2727,1.834
2728,1.83
2729,1.823
2730,1.819
2731,1.819
2732,1.816
2733,1.816
2734,1.812
2735,1.812
2736,1.816
2737,1.816
2738,1.816
2739,1.816
2740,1.816
2741,1.812
2742,1.808
2743,1.808
2744,1.812
2745,1.812
2746,1.812
2747,1.812
2748,1.816
2749,1.819
2750,1.823
2751,1.826
2752,1.826
2753,1.823
2754,1.819
2755,1.816
2756,1.812
2757,1.812
2758,1.812
2759,1.812
2760,1.808
2761,1.808
2762,1.801
2763,1.801
2764,1.801
2765,1.801
2766,1.798
2767,1.794
2768,1.794
2769,1.79
2770,1.787
2771,1.787
2772,1.787
2773,1.79
2774,1.794
2775,1.798
2776,1.798
2777,1.794
2778,1.79
2779,1.787
2780,1.783
2781,1.783
2782,1.783
2783,1.783
2784,1.787
2785,1.787
2786,1.79
2787,1.79
2788,1.783
2789,1.779
2790,1.776
2791,1.772
2792,1.772
2793,1.772
2794,1.772
2795,1.769
2796,1.769
2797,1.765
2798,1.761
2799,1.754
2800,1.754
2801,1.754
2802,1.754
2803,1.754
2804,1.754
2805,1.754
2806,1.758
2807,1.758
2808,1.754
2809,1.754
2810,1.754
2811,1.754
2812,1.754
2813,1.751
2814,1.747
2815,1.743
2816,1.736
2817,1.732
2818,1.729
2819,1.729
2820,1.725
2821,1.725
2822,1.725
2823,1.725
2824,1.725
2825,1.722
2826,1.722
2827,1.722
2828,1.722
2829,1.718
2830,1.718
2831,1.714
2832,1.718
2833,1.722
2834,1.725
2835,1.725
2836,1.722
2837,1.718
2838,1.714
2839,1.711
2840,1.711
2841,1.711
2842,1.707
2843,1.707
2844,1.707
2845,1.711
2846,1.711
2847,1.711
2848,1.711
2849,1.707
2850,1.707
2851,1.704
2852,1.7
2853,1.696
2854,1.689
2855,1.685
2856,1.685
2857,1.678
2858,1.678
2859,1.675
2860,1.671
2861,1.671
2862,1.671
2863,1.671
2864,1.667
2865,1.667
2866,1.667
2867,1.667
2868,1.667
2869,1.664
2870,1.664
2871,1.66
2872,1.66
2873,1.66
2874,1.66
2875,1.66
2876,1.66
2877,1.66
2878,1.667
2879,1.675
2880,1.682
2881,1.685
2882,1.685
2883,1.689
2884,1.693
2885,1.696
2886,1.696
2887,1.7
2888,1.7
2889,1.7
2890,1.7
2891,1.696
2892,1.693
2893,1.689
2894,1.685
2895,1.678
2896,1.667
2897,1.66
2898,1.657
2899,1.653
2900,1.649
2901,1.649
2902,1.646
2903,1.646
2904,1.642
2905,1.635
2906,1.631
2907,1.628
2908,1.628
2909,1.628
2910,1.628
2911,1.628
2912,1.628
2913,1.628
2914,1.624
2915,1.62
2916,1.613
2917,1.613
2918,1.606
2919,1.606
2920,1.602
2921,1.602
2922,1.602
2923,1.599
2924,1.599
2925,1.595
2926,1.591
2927,1.588
2928,1.588
2929,1.588
2930,1.588
2931,1.591
2932,1.599
2933,1.606
2934,1.609
2935,1.609
2936,1.609
2937,1.602
2938,1.599
2939,1.584
2940,1.57
2941,1.559
2942,1.544
2943,1.526
2944,1.505
2945,1.487
2946,1.476
2947,1.476
2948,1.49
2949,1.534
2950,1.617
2951,1.747
2952,1.913
2953,2.087
2954,2.246
2955,2.387
2956,2.496
2957,2.564
2958,2.597
2959,2.586
2960,2.535
2961,2.427
2962,2.286
2963,2.119
2964,1.949
2965,1.79
2966,1.66
2967,1.57
2968,1.519
2969,1.508
2970,1.523
2971,1.548
2972,1.573
2973,1.595
2974,1.609
2975,1.617
2976,1.613
2977,1.602
2978,1.588
2979,1.57
2980,1.552
2981,1.537
2982,1.523
2983,1.512
2984,1.505
2985,1.497
2986,1.494
2987,1.494
2988,1.497
2989,1.497
2990,1.497
2991,1.497
2992,1.497
2993,1.49
2994,1.49
2995,1.49
2996,1.487
2997,1.487
2998,1.487
2999,1.487
3000,1.487
3001,1.487
3002,1.483
3003,1.483
3004,1.479
3005,1.479
3006,1.479
3007,1.483
3008,1.487
3009,1.487
3010,1.49
3011,1.49
3012,1.487
3013,1.487
3014,1.49
3015,1.494
3016,1.497
3017,1.505
3018,1.512
3019,1.515
3020,1.519
3021,1.519
3022,1.523
3023,1.523
3024,1.526
3025,1.526
3026,1.526
3027,1.523
3028,1.523
3029,1.519
3030,1.519
3031,1.515
3032,1.519
3033,1.519
3034,1.523
3035,1.53
3036,1.537
3037,1.544
3038,1.548
3039,1.552
3040,1.552
3041,1.548
3042,1.548
3043,1.552
3044,1.552
3045,1.555
3046,1.559
3047,1.566
3048,1.57
3049,1.57
3050,1.577
3051,1.577
3052,1.581
3053,1.584
3054,1.584
3055,1.591
3056,1.595
3057,1.602
3058,1.609
3059,1.613
3060,1.62
3061,1.628
3062,1.635
3063,1.642
3064,1.649
3065,1.66
3066,1.667
3067,1.671
3068,1.678
3069,1.682
3070,1.689
3071,1.696
3072,1.704
3073,1.714
3074,1.722
3075,1.725
3076,1.729
3077,1.729
3078,1.729
3079,1.729
3080,1.729
3081,1.729
3082,1.732
3083,1.732
3084,1.736
3085,1.74
3086,1.743
3087,1.743
3088,1.743
3089,1.743
3090,1.747
3091,1.747
3092,1.747
3093,1.747
3094,1.743
3095,1.74
3096,1.736
3097,1.732
3098,1.732
3099,1.729
3100,1.725
3101,1.722
3102,1.714
3103,1.707
3104,1.7
3105,1.693
3106,1.682
3107,1.675
3108,1.671
3109,1.664
3110,1.657
3111,1.653
3112,1.642
3113,1.628
3114,1.617
3115,1.602
3116,1.588
3117,1.577
3118,1.566
3119,1.559
3120,1.548
3121,1.544
3122,1.544
3123,1.537
3124,1.534
3125,1.53
3126,1.526
3127,1.523
3128,1.523
3129,1.526
3130,1.53
3131,1.53
3132,1.534
3133,1.537
3134,1.534
3135,1.534
3136,1.53
3137,1.53
3138,1.53
3139,1.534
3140,1.534
3141,1.537
3142,1.537
3143,1.537
3144,1.544
3145,1.544
3146,1.544
3147,1.548
3148,1.548
3149,1.548
3150,1.544
3151,1.544
3152,1.541
3153,1.541
3154,1.537
3155,1.537
3156,1.537
3157,1.537
3158,1.541
3159,1.544
3160,1.548
3161,1.552
3162,1.552
3163,1.555
3164,1.559
3165,1.562
3166,1.562
3167,1.562
3168,1.566
3169,1.566
3170,1.566
3171,1.57
3172,1.57
3173,1.57
3174,1.573
3175,1.573
3176,1.577
3177,1.577
3178,1.581
3179,1.584
3180,1.584
3181,1.588
3182,1.591
3183,1.595
3184,1.599
3185,1.602
3186,1.606
3187,1.609
3188,1.609
3189,1.613
3190,1.613
3191,1.613
3192,1.613
3193,1.613
3194,1.609
3195,1.606
3196,1.606
3197,1.609
3198,1.613
3199,1.62
3200,1.62
3201,1.624
3202,1.624
3203,1.62
3204,1.62
3205,1.624
3206,1.628
3207,1.631
3208,1.635
3209,1.638
3210,1.635
3211,1.631
3212,1.631
3213,1.631
3214,1.635
3215,1.635
3216,1.638
3217,1.642
3218,1.642
3219,1.642
3220,1.642
3221,1.638
3222,1.638
3223,1.635
3224,1.635
3225,1.635
3226,1.638
3227,1.642
3228,1.646
3229,1.646
3230,1.649
3231,1.653
3232,1.653
3233,1.657
3234,1.66
3235,1.664
3236,1.664
3237,1.664
3238,1.66
3239,1.657
3240,1.657
3241,1.657
3242,1.649
3243,1.649
3244,1.649
3245,1.649
3246,1.649
3247,1.649
3248,1.653
3249,1.653
3250,1.657
3251,1.657
3252,1.66
3253,1.66
3254,1.66
3255,1.664
3256,1.667
3257,1.667
3258,1.671
3259,1.671
3260,1.675
3261,1.678
3262,1.682
3263,1.685
3264,1.685
3265,1.685
3266,1.689
3267,1.693
3268,1.693
3269,1.693
3270,1.696
3271,1.693
3272,1.696
3273,1.696
3274,1.7
3275,1.7
3276,1.704
3277,1.704
3278,1.704
3279,1.7
3280,1.7
3281,1.7
3282,1.7
3283,1.7
3284,1.707
3285,1.707
3286,1.714
3287,1.718
3288,1.722
3289,1.722
3290,1.725
3291,1.725
3292,1.725
3293,1.722
3294,1.722
3295,1.725
3296,1.722
3297,1.718
3298,1.718
3299,1.718
3300,1.714
3301,1.714
3302,1.714
3303,1.714
3304,1.714
3305,1.714
3306,1.718
3307,1.714
3308,1.718
3309,1.718
3310,1.725
3311,1.729
3312,1.736
3313,1.74
3314,1.743
3315,1.743
3316,1.743
3317,1.743
3318,1.743
3319,1.743
3320,1.743
3321,1.743
3322,1.743
3323,1.743
3324,1.747
3325,1.751
3326,1.754
3327,1.758
3328,1.761
3329,1.765
3330,1.769
3331,1.769
3332,1.765
3333,1.758
3334,1.754
3335,1.751
3336,1.747
3337,1.743
3338,1.74
3339,1.743
3340,1.743
3341,1.747
3342,1.751
3343,1.751
3344,1.754
3345,1.758
3346,1.761
3347,1.761
3348,1.765
3349,1.765
3350,1.769
3351,1.765
3352,1.765
3353,1.765
3354,1.765
3355,1.761
3356,1.758
3357,1.754
3358,1.751
3359,1.751
3360,1.751
3361,1.747
3362,1.751
3363,1.754
3364,1.758
3365,1.761
3366,1.761
3367,1.761
3368,1.761
3369,1.758
3370,1.758
3371,1.758
3372,1.758
3373,1.761
3374,1.761
3375,1.761
3376,1.761
3377,1.761
3378,1.761
3379,1.761
3380,1.761
3381,1.758
3382,1.761
3383,1.758
3384,1.758
3385,1.758
3386,1.758
3387,1.761
3388,1.765
3389,1.772
3390,1.776
3391,1.783
3392,1.79
3393,1.798
3394,1.805
3395,1.808
3396,1.812
3397,1.812
3398,1.816
3399,1.819
3400,1.823
3401,1.823
3402,1.826
3403,1.826
3404,1.823
3405,1.816
3406,1.812
3407,1.812
3408,1.808
3409,1.808
3410,1.812
3411,1.812
3412,1.808
3413,1.808
3414,1.808
3415,1.805
3416,1.805
3417,1.801
3418,1.801
3419,1.801
3420,1.801
3421,1.801
3422,1.798
3423,1.794
3424,1.794
3425,1.798
3426,1.794
3427,1.798
3428,1.801
3429,1.805
3430,1.808
3431,1.808
3432,1.808
3433,1.805
3434,1.801
3435,1.798
3436,1.801
3437,1.801
3438,1.801
3439,1.805
3440,1.805
3441,1.805
3442,1.805
3443,1.805
3444,1.801
3445,1.801
3446,1.798
3447,1.794
3448,1.787
3449,1.776
3450,1.761
3451,1.751
3452,1.732
3453,1.711
3454,1.693
3455,1.682
3456,1.678
3457,1.689
3458,1.714
3459,1.772
3460,1.866
3461,2.0
3462,2.166
3463,2.344
3464,2.51
3465,2.666
3466,2.789
3467,2.865
3468,2.908
3469,2.893
3470,2.836
3471,2.738
3472,2.604
3473,2.449
3474,2.289
3475,2.138
3476,2.007
3477,1.906
3478,1.845
3479,1.812
3480,1.798
3481,1.801
3482,1.812
3483,1.826
3484,1.834
3485,1.83
3486,1.819
3487,1.805
3488,1.787
3489,1.769
3490,1.758
3491,1.74
3492,1.732
3493,1.729
3494,1.729
3495,1.725
3496,1.729
3497,1.729
3498,1.729
3499,1.729
3500,1.729
3501,1.725
3502,1.725
3503,1.725
3504,1.729
3505,1.729
3506,1.732
3507,1.736
3508,1.74
3509,1.74
3510,1.743
3511,1.743
3512,1.747
3513,1.743
3514,1.743
3515,1.747
3516,1.751
3517,1.751
3518,1.747
3519,1.747
3520,1.743
3521,1.74
3522,1.74
3523,1.743
3524,1.743
3525,1.743
3526,1.743
3527,1.743
3528,1.743
3529,1.743
3530,1.743
3531,1.743
3532,1.751
3533,1.754
3534,1.758
3535,1.758
3536,1.758
3537,1.758
3538,1.754
3539,1.754
3540,1.758
3541,1.758
3542,1.758
3543,1.758
3544,1.758
3545,1.761
3546,1.761
3547,1.765
3548,1.769
3549,1.769
3550,1.769
3551,1.772
3552,1.776
3553,1.776
3554,1.779
3555,1.787
3556,1.783
3557,1.783
3558,1.787
3559,1.787
3560,1.787
3561,1.787
3562,1.79
3563,1.794
3564,1.801
3565,1.805
3566,1.812
3567,1.812
3568,1.816
3569,1.819
3570,1.823
3571,1.83
3572,1.834
3573,1.841
3574,1.848
3575,1.855
3576,1.863
3577,1.866
3578,1.87
3579,1.874
3580,1.877
3581,1.884
3582,1.892
3583,1.895
3584,1.895
3585,1.895
3586,1.899
3587,1.902
3588,1.902
3589,1.899
3590,1.899
3591,1.902
3592,1.902
3593,1.906
3594,1.906
3595,1.906
3596,1.906
3597,1.91
3598,1.91
3599,1.902
3600,1.902
3601,1.906
3602,1.91
3603,1.913
3604,1.913
3605,1.91
3606,1.906
3607,1.899
3608,1.895
3609,1.895
3610,1.888
3611,1.884
3612,1.877
3613,1.87
3614,1.863
3615,1.855
3616,1.845
3617,1.83
3618,1.819
3619,1.812
3620,1.805
3621,1.79
3622,1.779
3623,1.769
3624,1.758
3625,1.747
3626,1.736
3627,1.725
3628,1.718
3629,1.711
3630,1.711
3631,1.704
3632,1.7
3633,1.696
3634,1.693
3635,1.685
3636,1.682
3637,1.675
3638,1.675
3639,1.671
3640,1.667
3641,1.671
3642,1.671
3643,1.667
3644,1.667
3645,1.667
3646,1.664
3647,1.664
3648,1.664
3649,1.667
3650,1.675
3651,1.678
3652,1.682
3653,1.682
3654,1.682
3655,1.678
3656,1.682
3657,1.682
3658,1.682
3659,1.682
3660,1.682
3661,1.682
3662,1.685
3663,1.689
3664,1.689
3665,1.693
3666,1.693
3667,1.693
3668,1.693
3669,1.696
3670,1.696
3671,1.696
3672,1.693
3673,1.696
3674,1.7
3675,1.7
3676,1.696
3677,1.7
3678,1.704
3679,1.704
3680,1.704
3681,1.7
3682,1.7
3683,1.7
3684,1.7
3685,1.7
3686,1.7
3687,1.7
3688,1.704
3689,1.707
3690,1.711
3691,1.714
3692,1.718
3693,1.714
3694,1.714
3695,1.714
3696,1.714
3697,1.711
3698,1.711
3699,1.714
3700,1.714
3701,1.714
3702,1.714
3703,1.714
3704,1.714
3705,1.714
3706,1.718
3707,1.714
3708,1.718
3709,1.718
3710,1.718
3711,1.718
3712,1.722
3713,1.725
3714,1.729
3715,1.732
3716,1.736
3717,1.743
3718,1.743
3719,1.747
3720,1.743
3721,1.743
3722,1.743
3723,1.743
3724,1.743
3725,1.743
3726,1.743
3727,1.747
3728,1.751
3729,1.747
3730,1.747
3731,1.747
3732,1.743
3733,1.74
3734,1.74
3735,1.743
3736,1.743
3737,1.747
3738,1.751
3739,1.758
3740,1.758
3741,1.754
3742,1.751
3743,1.751
3744,1.747
3745,1.74
3746,1.736
3747,1.736
3748,1.732
3749,1.736
3750,1.736
3751,1.732
3752,1.736
3753,1.736
3754,1.74
3755,1.743
3756,1.747
3757,1.751
3758,1.751
3759,1.754
3760,1.754
3761,1.754
3762,1.754
3763,1.754
3764,1.758
3765,1.758
3766,1.758
3767,1.758
3768,1.761
3769,1.761
3770,1.758
3771,1.761
3772,1.758
3773,1.754
3774,1.754
3775,1.758
3776,1.761
3777,1.765
3778,1.765
3779,1.769
3780,1.772
3781,1.772
3782,1.776
3783,1.776
3784,1.779
3785,1.779
3786,1.779
3787,1.776
3788,1.776
3789,1.772
3790,1.769
3791,1.769
3792,1.769
3793,1.772
3794,1.772
3795,1.776
3796,1.776
3797,1.776
3798,1.776
3799,1.779
3800,1.783
3801,1.787
3802,1.787
3803,1.79
3804,1.794
3805,1.79
3806,1.787
3807,1.783
3808,1.779
3809,1.772
3810,1.772
3811,1.769
3812,1.769
3813,1.769
3814,1.772
3815,1.769
3816,1.765
3817,1.761
3818,1.761
3819,1.761
3820,1.765
3821,1.769
3822,1.772
3823,1.776
3824,1.779
3825,1.783
3826,1.779
3827,1.776
3828,1.769
3829,1.769
3830,1.765
3831,1.769
3832,1.772
3833,1.776
3834,1.779
3835,1.783
3836,1.783
3837,1.783
3838,1.787
3839,1.79
3840,1.79
3841,1.794
3842,1.794
3843,1.79
3844,1.79
3845,1.79
3846,1.794
3847,1.801
3848,1.798
3849,1.801
3850,1.801
3851,1.801
3852,1.801
3853,1.801
3854,1.798
3855,1.798
3856,1.798
3857,1.798
3858,1.798
3859,1.794
3860,1.794
3861,1.798
3862,1.798
3863,1.798
3864,1.798
3865,1.798
3866,1.801
3867,1.805
3868,1.808
3869,1.808
3870,1.808
3871,1.808
3872,1.812
3873,1.812
3874,1.808
3875,1.808
3876,1.805
3877,1.801
3878,1.801
3879,1.805
3880,1.805
3881,1.805
3882,1.805
3883,1.805
3884,1.805
3885,1.801
3886,1.798
3887,1.79
3888,1.79
3889,1.79
3890,1.794
3891,1.794
3892,1.798
3893,1.801
3894,1.801
3895,1.801
3896,1.805
3897,1.805
3898,1.808
3899,1.816
3900,1.819
3901,1.823
3902,1.819
3903,1.816
3904,1.808
3905,1.801
3906,1.798
3907,1.794
3908,1.794
3909,1.794
3910,1.794
3911,1.794
3912,1.794
3913,1.794
3914,1.794
3915,1.801
3916,1.805
3917,1.816
3918,1.826
3919,1.837
3920,1.845
3921,1.852
3922,1.859
3923,1.859
3924,1.859
3925,1.855
3926,1.855
3927,1.855
3928,1.855
3929,1.855
3930,1.855
3931,1.852
3932,1.845
3933,1.845
3934,1.841
3935,1.841
3936,1.845
3937,1.852
3938,1.852
3939,1.855
3940,1.852
3941,1.848
3942,1.841
3943,1.841
3944,1.837
3945,1.834
3946,1.83
3947,1.83
3948,1.834
3949,1.834
3950,1.834
3951,1.83
3952,1.826
3953,1.823
3954,1.819
3955,1.823
3956,1.823
3957,1.826
3958,1.83
3959,1.83
3960,1.834
3961,1.837
3962,1.837
3963,1.837
3964,1.837
3965,1.837
3966,1.841
3967,1.841
3968,1.841
3969,1.841
3970,1.848
3971,1.852
3972,1.852
3973,1.852
3974,1.845
3975,1.837
3976,1.826
3977,1.819
3978,1.808
3979,1.798
3980,1.779
3981,1.761
3982,1.751
3983,1.747
3984,1.758
3985,1.794
3986,1.855
3987,1.953
3988,2.08
3989,2.224
3990,2.383
3991,2.532
3992,2.666
3993,2.77
3994,2.839
3995,2.872
3996,2.861
3997,2.807
3998,2.716
3999,2.586
4000,2.438
4001,2.293
4002,2.152
4003,2.033
4004,1.949
4005,1.892
4006,1.866
4007,1.855
4008,1.855
4009,1.863
4010,1.866
4011,1.863
4012,1.855
4013,1.845
4014,1.83
4015,1.816
4016,1.805
4017,1.79
4018,1.779
4019,1.772
4020,1.765
4021,1.758
4022,1.758
4023,1.758
4024,1.758
4025,1.758
4026,1.758
4027,1.758
4028,1.754
4029,1.754
4030,1.754
4031,1.758
4032,1.754
4033,1.758
4034,1.758
4035,1.758
4036,1.761
4037,1.754
4038,1.751
4039,1.751
4040,1.747
4041,1.747
4042,1.751
4043,1.751
4044,1.754
4045,1.758
4046,1.761
4047,1.765
4048,1.769
4049,1.772
4050,1.776
4051,1.783
4052,1.787
4053,1.787
4054,1.787
4055,1.787
4056,1.787
4057,1.783
4058,1.779
4059,1.779
4060,1.779
4061,1.779
4062,1.779
4063,1.783
4064,1.783
4065,1.783
4066,1.787
4067,1.787
4068,1.79
4069,1.79
4070,1.79
4071,1.79
4072,1.794
4073,1.794
4074,1.801
4075,1.798
4076,1.794
4077,1.794
4078,1.794
4079,1.794
4080,1.794
4081,1.798
4082,1.798
4083,1.801
4084,1.808
4085,1.812
4086,1.816
4087,1.816
4088,1.816
4089,1.816
4090,1.819
4091,1.823
4092,1.826
4093,1.834
4094,1.837
4095,1.845
4096,1.845
4097,1.845
4098,1.845
4099,1.848
4100,1.855
4101,1.863
4102,1.874
4103,1.881
4104,1.888
4105,1.895
4106,1.899
4107,1.902
4108,1.906
4109,1.91
4110,1.913
4111,1.917
4112,1.924
4113,1.928
4114,1.928
4115,1.931
4116,1.931
4117,1.935
4118,1.935
4119,1.935
4120,1.939
4121,1.942
4122,1.946
4123,1.953
4124,1.957
4125,1.96
4126,1.964
4127,1.964
4128,1.968
4129,1.964
4130,1.964
4131,1.964
4132,1.964
4133,1.96
4134,1.953
4135,1.949
4136,1.942
4137,1.935
4138,1.928
4139,1.924
4140,1.921
4141,1.917
4142,1.917
4143,1.91
4144,1.899
4145,1.888
4146,1.87
4147,1.855
4148,1.841
4149,1.83
4150,1.823
4151,1.812
4152,1.801
4153,1.79
4154,1.783
4155,1.772
4156,1.765
4157,1.761
4158,1.758
4159,1.758
4160,1.758
4161,1.751
4162,1.747
4163,1.743
4164,1.74
4165,1.736
4166,1.736
4167,1.736
4168,1.74
4169,1.743
4170,1.747
4171,1.751
4172,1.747
4173,1.747
4174,1.747
4175,1.743
4176,1.743
4177,1.743
4178,1.743
4179,1.743
4180,1.743
4181,1.74
4182,1.74
4183,1.736
4184,1.732
4185,1.729
4186,1.729
4187,1.729
4188,1.729
4189,1.732
4190,1.736
4191,1.74
4192,1.743
4193,1.751
4194,1.747
4195,1.747
4196,1.747
4197,1.747
4198,1.747
4199,1.747
4200,1.743
4201,1.74
4202,1.74
4203,1.736
4204,1.74
4205,1.736
4206,1.74
4207,1.747
4208,1.747
4209,1.747
4210,1.747
4211,1.743
4212,1.74
4213,1.732
4214,1.732
4215,1.732
4216,1.729
4217,1.729
4218,1.729
4219,1.729
4220,1.732
4221,1.732
4222,1.736
4223,1.732
4224,1.732
4225,1.732
4226,1.725
4227,1.725
4228,1.725
4229,1.722
4230,1.725
4231,1.725
4232,1.729
4233,1.732
4234,1.736
4235,1.74
4236,1.747
4237,1.747
4238,1.751
4239,1.751
4240,1.754
4241,1.754
4242,1.758
4243,1.761
4244,1.761
4245,1.761
4246,1.765
4247,1.769
4248,1.772
4249,1.776
4250,1.779
4251,1.787
4252,1.787
4253,1.787
4254,1.787
4255,1.79
4256,1.79
4257,1.787
4258,1.787
4259,1.783
4260,1.779
4261,1.779
4262,1.779
4263,1.783
4264,1.787
4265,1.79
4266,1.794
4267,1.79
4268,1.787
4269,1.783
4270,1.779
4271,1.779
4272,1.779
4273,1.779
4274,1.779
4275,1.779
4276,1.779
4277,1.779
4278,1.783
4279,1.79
4280,1.794
4281,1.798
4282,1.805
4283,1.805
4284,1.808
4285,1.808
4286,1.808
4287,1.805
4288,1.801
4289,1.801
4290,1.801
4291,1.798
4292,1.798
4293,1.805
4294,1.808
4295,1.812
4296,1.812
4297,1.816
4298,1.816
4299,1.812
4300,1.812
4301,1.816
4302,1.816
4303,1.816
4304,1.816
4305,1.816
4306,1.812
4307,1.812
4308,1.812
4309,1.816
4310,1.816
4311,1.819
4312,1.826
4313,1.823
4314,1.819
4315,1.819
4316,1.816
4317,1.812
4318,1.808
4319,1.808
4320,1.805
4321,1.801
4322,1.801
4323,1.805
4324,1.805
4325,1.812
4326,1.816
4327,1.819
4328,1.823
4329,1.826
4330,1.826
4331,1.826
4332,1.826
4333,1.83
4334,1.83
4335,1.826
4336,1.83
4337,1.83
4338,1.834
4339,1.837
4340,1.837
4341,1.834
4342,1.83
4343,1.826
4344,1.826
4345,1.823
4346,1.823
4347,1.823
4348,1.819
4349,1.819
4350,1.816
4351,1.816
4352,1.823
4353,1.826
4354,1.834
4355,1.837
4356,1.837
4357,1.837
4358,1.837
4359,1.837
4360,1.841
4361,1.841
4362,1.837
4363,1.837
4364,1.834
4365,1.826
4366,1.823
4367,1.823
4368,1.823
4369,1.826
4370,1.83
4371,1.834
4372,1.837
4373,1.837
4374,1.837
4375,1.834
4376,1.83
4377,1.826
4378,1.826
4379,1.826
4380,1.823
4381,1.826
4382,1.826
4383,1.83
4384,1.834
4385,1.837
4386,1.841
4387,1.845
4388,1.845
4389,1.841
4390,1.841
4391,1.837
4392,1.837
4393,1.834
4394,1.834
4395,1.837
4396,1.837
4397,1.834
4398,1.834
4399,1.823
4400,1.816
4401,1.808
4402,1.805
4403,1.801
4404,1.801
4405,1.805
4406,1.808
4407,1.812
4408,1.816
4409,1.819
4410,1.816
4411,1.812
4412,1.812
4413,1.808
4414,1.808
4415,1.805
4416,1.805
4417,1.805
4418,1.805
4419,1.805
4420,1.808
4421,1.812
4422,1.812
4423,1.819
4424,1.823
4425,1.83
4426,1.83
4427,1.826
4428,1.823
4429,1.819
4430,1.812
4431,1.808
4432,1.805
4433,1.805
4434,1.808
4435,1.808
4436,1.805
4437,1.801
4438,1.798
4439,1.79
4440,1.79
4441,1.787
4442,1.787
4443,1.783
4444,1.783
4445,1.783
4446,1.787
4447,1.79
4448,1.794
4449,1.798
4450,1.801
4451,1.805
4452,1.805
4453,1.805
4454,1.808
4455,1.808
4456,1.808
4457,1.812
4458,1.812
4459,1.812
4460,1.816
4461,1.816
4462,1.816
4463,1.819
4464,1.816
4465,1.812
4466,1.808
4467,1.805
4468,1.801
4469,1.798
4470,1.794
4471,1.794
4472,1.794
4473,1.794
4474,1.79
4475,1.787
4476,1.783
4477,1.779
4478,1.779
4479,1.772
4480,1.772
4481,1.776
4482,1.776
4483,1.776
4484,1.779
4485,1.783
4486,1.783
4487,1.787
4488,1.787
4489,1.783
4490,1.779
4491,1.779
4492,1.779
4493,1.779
4494,1.779
4495,1.779
4496,1.779
4497,1.769
4498,1.769
4499,1.765
4500,1.765
4501,1.769
4502,1.769
4503,1.772
4504,1.776
4505,1.776
4506,1.783
4507,1.783
4508,1.776
4509,1.765
4510,1.754
4511,1.736
4512,1.722
4513,1.7
4514,1.678
4515,1.657
4516,1.646
4517,1.646
4518,1.653
4519,1.696
4520,1.779
4521,1.91
4522,2.08
4523,2.261
4524,2.434
4525,2.586
4526,2.709
4527,2.785
4528,2.828
4529,2.821
4530,2.778
4531,2.684
4532,2.55
4533,2.387
4534,2.213
4535,2.047
4536,1.906
4537,1.798
4538,1.736
4539,1.718
4540,1.718
4541,1.732
4542,1.754
4543,1.772
4544,1.787
4545,1.794
4546,1.79
4547,1.776
4548,1.758
4549,1.736
4550,1.718
4551,1.7
4552,1.689
4553,1.685
4554,1.682
4555,1.678
4556,1.675
4557,1.675
4558,1.671
4559,1.667
4560,1.671
4561,1.671
4562,1.671
4563,1.675
4564,1.678
4565,1.682
4566,1.682
4567,1.682
4568,1.678
4569,1.675
4570,1.671
4571,1.675
4572,1.675
4573,1.675
4574,1.678
4575,1.678
4576,1.678
4577,1.682
4578,1.678
4579,1.678
4580,1.678
4581,1.682
4582,1.682
4583,1.682
4584,1.682
4585,1.678
4586,1.678
4587,1.678
4588,1.682
4589,1.682
4590,1.682
4591,1.685
4592,1.685
4593,1.689
4594,1.689
4595,1.693
4596,1.693
4597,1.693
4598,1.696
4599,1.7
4600,1.704
4601,1.707
4602,1.711
4603,1.714
4604,1.714
4605,1.707
4606,1.707
4607,1.704
4608,1.707
4609,1.711
4610,1.718
4611,1.725
4612,1.729
4613,1.725
4614,1.725
4615,1.725
4616,1.725
4617,1.722
4618,1.722
4619,1.725
4620,1.729
4621,1.736
4622,1.74
4623,1.74
4624,1.743
4625,1.751
4626,1.758
4627,1.761
4628,1.765
4629,1.772
4630,1.779
4631,1.79
4632,1.798
4633,1.805
4634,1.808
4635,1.812
4636,1.816
4637,1.819
4638,1.826
4639,1.834
4640,1.841
4641,1.845
4642,1.852
4643,1.855
4644,1.859
4645,1.866
4646,1.87
4647,1.881
4648,1.884
4649,1.884
4650,1.888
4651,1.888
4652,1.888
4653,1.888
4654,1.888
4655,1.884
4656,1.888
4657,1.892
4658,1.899
4659,1.899
4660,1.902
4661,1.902
4662,1.906
4663,1.906
4664,1.906
4665,1.906
4666,1.906
4667,1.902
4668,1.899
4669,1.895
4670,1.892
4671,1.884
4672,1.877
4673,1.866
4674,1.855
4675,1.845
4676,1.834
4677,1.823
4678,1.812
4679,1.805
4680,1.79
4681,1.779
4682,1.765
4683,1.751
4684,1.74
4685,1.729
4686,1.718
4687,1.707
4688,1.7
4689,1.693
4690,1.689
4691,1.682
4692,1.678
4693,1.675
4694,1.675
4695,1.671
4696,1.664
4697,1.66
4698,1.657
4699,1.653
4700,1.649
4701,1.646
4702,1.646
4703,1.646
4704,1.646
4705,1.649
4706,1.653
4707,1.657
4708,1.657
4709,1.657
4710,1.657
4711,1.657
4712,1.657
4713,1.649
4714,1.649
4715,1.649
4716,1.649
4717,1.649
4718,1.653
4719,1.653
4720,1.653
4721,1.653
4722,1.653
4723,1.653
4724,1.653
4725,1.653
4726,1.653
4727,1.649
4728,1.649
4729,1.653
4730,1.657
4731,1.66
4732,1.66
4733,1.66
4734,1.664
4735,1.664
4736,1.667
4737,1.671
4738,1.671
4739,1.671
4740,1.671
4741,1.671
4742,1.671
4743,1.671
4744,1.675
4745,1.675
4746,1.678
4747,1.682
4748,1.685
4749,1.689
4750,1.689
4751,1.689
4752,1.689
4753,1.693
4754,1.693
4755,1.696
4756,1.696
4757,1.7
4758,1.7
4759,1.704
4760,1.704
4761,1.707
4762,1.707
4763,1.707
4764,1.707
4765,1.707
4766,1.711
4767,1.711
4768,1.714
4769,1.714
4770,1.718
4771,1.714
4772,1.714
4773,1.714
4774,1.718
4775,1.722
4776,1.729
4777,1.732
4778,1.732
4779,1.736
4780,1.736
4781,1.736
4782,1.74
4783,1.743
4784,1.743
4785,1.743
4786,1.743
4787,1.743
4788,1.747
4789,1.747
4790,1.747
4791,1.751
4792,1.751
4793,1.747
4794,1.743
4795,1.747
4796,1.747
4797,1.747
4798,1.751
4799,1.751
4800,1.751
4801,1.751
4802,1.751
4803,1.751
4804,1.747
4805,1.747
4806,1.747
4807,1.747
4808,1.747
4809,1.751
4810,1.747
4811,1.747
4812,1.747
4813,1.747
4814,1.751
4815,1.751
4816,1.754
4817,1.754
4818,1.758
4819,1.758
4820,1.765
4821,1.765
4822,1.769
4823,1.769
4824,1.772
4825,1.772
4826,1.772
4827,1.772
4828,1.772
4829,1.772
4830,1.776
4831,1.779
4832,1.779
4833,1.783
4834,1.787
4835,1.787
4836,1.79
4837,1.79
4838,1.794
4839,1.794
4840,1.798
4841,1.798
4842,1.801
4843,1.801
4844,1.805
4845,1.805
4846,1.801
4847,1.801
4848,1.798
4849,1.798
4850,1.794
4851,1.794
4852,1.794
4853,1.794
4854,1.79
4855,1.79
4856,1.787
4857,1.787
4858,1.787
4859,1.79
4860,1.79
4861,1.794
4862,1.798
4863,1.801
4864,1.805
4865,1.805
4866,1.808
4867,1.808
4868,1.808
4869,1.808
4870,1.812
4871,1.816
4872,1.812
4873,1.812
4874,1.812
4875,1.808
4876,1.808
4877,1.808
4878,1.808
4879,1.805
4880,1.805
4881,1.805
4882,1.808
4883,1.808
4884,1.812
4885,1.819
4886,1.819
4887,1.819
4888,1.819
4889,1.816
4890,1.816
4891,1.816
4892,1.816
4893,1.816
4894,1.819
4895,1.819
4896,1.823
4897,1.823
4898,1.826
4899,1.83
4900,1.83
4901,1.83
4902,1.83
4903,1.826
4904,1.826
4905,1.826
4906,1.826
4907,1.826
4908,1.83
4909,1.834
4910,1.837
4911,1.841
4912,1.841
4913,1.845
4914,1.841
4915,1.837
4916,1.834
4917,1.837
4918,1.837
4919,1.834
4920,1.834
4921,1.834
4922,1.834
4923,1.834
4924,1.834
4925,1.83
4926,1.834
4927,1.834
4928,1.841
4929,1.841
4930,1.845
4931,1.845
4932,1.841
4933,1.837
4934,1.83
4935,1.83
4936,1.83
4937,1.83
4938,1.83
4939,1.83
4940,1.823
4941,1.819
4942,1.819
4943,1.816
4944,1.819
4945,1.819
4946,1.823
4947,1.823
4948,1.823
4949,1.826
4950,1.834
4951,1.837
4952,1.845
4953,1.855
4954,1.866
4955,1.874
4956,1.881
4957,1.888
4958,1.892
4959,1.895
4960,1.892
4961,1.884
4962,1.877
4963,1.874
4964,1.874
4965,1.874
4966,1.874
4967,1.874
4968,1.866
4969,1.863
4970,1.859
4971,1.859
4972,1.855
4973,1.852
4974,1.848
4975,1.852
4976,1.855
4977,1.859
4978,1.855
4979,1.852
4980,1.848
4981,1.845
4982,1.845
4983,1.837
4984,1.837
4985,1.837
4986,1.841
4987,1.841
4988,1.841
4989,1.841
4990,1.837
4991,1.83
4992,1.826
4993,1.826
4994,1.823
4995,1.823
4996,1.83
4997,1.834
4998,1.837
4999,1.841
5000,1.841
5001,1.845
5002,1.845
5003,1.848
5004,1.852
5005,1.848
5006,1.852
5007,1.852
5008,1.848
5009,1.841
5010,1.83
5011,1.816
5012,1.801
5013,1.783
5014,1.765
5015,1.747
5016,1.725
5017,1.707
5018,1.704
5019,1.711
5020,1.747
5021,1.823
5022,1.939
5023,2.098
5024,2.279
5025,2.463
5026,2.633
5027,2.774
5028,2.879
5029,2.937
5030,2.951
5031,2.926
5032,2.857
5033,2.749
5034,2.608
5035,2.452
5036,2.297
5037,2.145
5038,2.022
5039,1.931
5040,1.877
5041,1.855
5042,1.855
5043,1.866
5044,1.881
5045,1.899
5046,1.906
5047,1.902
5048,1.892
5049,1.877
5050,1.855
5051,1.841
5052,1.826
5053,1.816
5054,1.805
5055,1.798
5056,1.787
5057,1.779
5058,1.776
5059,1.776
5060,1.776
5061,1.779
5062,1.783
5063,1.79
5064,1.798
5065,1.805
5066,1.805
5067,1.805
5068,1.805
5069,1.805
5070,1.801
5071,1.801
5072,1.798
5073,1.794
5074,1.794
5075,1.79
5076,1.79
5077,1.787
5078,1.787
5079,1.787
5080,1.787
5081,1.787
5082,1.79
5083,1.794
5084,1.798
5085,1.794
5086,1.787
5087,1.783
5088,1.779
5089,1.779
5090,1.787
5091,1.794
5092,1.798
5093,1.801
5094,1.801
5095,1.808
5096,1.808
5097,1.808
5098,1.812
5099,1.812
5100,1.812
5101,1.819
5102,1.823
5103,1.823
5104,1.826
5105,1.83
5106,1.826
5107,1.826
5108,1.83
5109,1.834
5110,1.837
5111,1.841
5112,1.845
5113,1.845
5114,1.852
5115,1.855
5116,1.855
5117,1.855
5118,1.852
5119,1.852
5120,1.859
5121,1.863
5122,1.87
5123,1.877
5124,1.877
5125,1.874
5126,1.874
5127,1.877
5128,1.881
5129,1.884
5130,1.892
5131,1.895
5132,1.895
5133,1.899
5134,1.91
5135,1.917
5136,1.924
5137,1.935
5138,1.942
5139,1.953
5140,1.96
5141,1.968
5142,1.975
5143,1.978
5144,1.982
5145,1.986
5146,1.993
5147,1.996
5148,2.004
5149,2.007
5150,2.011
5151,2.015
5152,2.011
5153,2.015
5154,2.015
5155,2.018
5156,2.011
5157,2.007
5158,2.004
5159,2.007
5160,2.004
5161,2.004
5162,2.004
5163,2.011
5164,2.018
5165,2.025
5166,2.033
5167,2.033
5168,2.033
5169,2.029
5170,2.022
5171,2.011
5172,1.996
5173,1.989
5174,1.978
5175,1.975
5176,1.968
5177,1.971
5178,1.968
5179,1.964
5180,1.964
5181,1.957
5182,1.946
5183,1.935
5184,1.917
5185,1.906
5186,1.892
5187,1.874
5188,1.859
5189,1.841
5190,1.834
5191,1.823
5192,1.819
5193,1.819
5194,1.819
5195,1.819
5196,1.816
5197,1.816
5198,1.816
5199,1.816
5200,1.812
5201,1.801
5202,1.794
5203,1.79
5204,1.787
5205,1.787
5206,1.794
5207,1.798
5208,1.801
5209,1.808
5210,1.808
5211,1.812
5212,1.816
5213,1.816
5214,1.823
5215,1.826
5216,1.834
5217,1.834
5218,1.83
5219,1.826
5220,1.83
5221,1.834
5222,1.834
5223,1.837
5224,1.837
5225,1.841
5226,1.845
5227,1.848
5228,1.845
5229,1.841
5230,1.841
5231,1.845
5232,1.845
5233,1.852
5234,1.852
5235,1.855
5236,1.855
5237,1.863
5238,1.866
5239,1.87
5240,1.874
5241,1.87
5242,1.866
5243,1.859
5244,1.855
5245,1.852
5246,1.852
5247,1.852
5248,1.855
5249,1.859
5250,1.855
5251,1.859
5252,1.866
5253,1.87
5254,1.874
5255,1.877
5256,1.881
5257,1.888
5258,1.895
5259,1.895
5260,1.895
5261,1.895
5262,1.892
5263,1.888
5264,1.884
5265,1.881
5266,1.881
5267,1.884
5268,1.888
5269,1.888
5270,1.892
5271,1.892
5272,1.892
5273,1.892
5274,1.892
5275,1.892
5276,1.888
5277,1.881
5278,1.877
5279,1.874
5280,1.87
5281,1.874
5282,1.877
5283,1.884
5284,1.892
5285,1.899
5286,1.906
5287,1.91
5288,1.913
5289,1.917
5290,1.913
5291,1.913
5292,1.91
5293,1.91
5294,1.91
5295,1.91
5296,1.91
5297,1.906
5298,1.902
5299,1.899
5300,1.899
5301,1.906
5302,1.906
5303,1.906
5304,1.913
5305,1.917
5306,1.917
5307,1.917
5308,1.913
5309,1.906
5310,1.906
5311,1.91
5312,1.91
5313,1.91
5314,1.91
5315,1.91
5316,1.91
5317,1.917
5318,1.921
5319,1.917
5320,1.921
5321,1.924
5322,1.928
5323,1.928
5324,1.924
5325,1.917
5326,1.91
5327,1.91
5328,1.91
5329,1.906
5330,1.906
5331,1.906
5332,1.906
5333,1.902
5334,1.899
5335,1.899
5336,1.895
5337,1.895
5338,1.899
5339,1.91
5340,1.913
5341,1.924
5342,1.935
5343,1.939
5344,1.942
5345,1.939
5346,1.931
5347,1.928
5348,1.928
5349,1.928
5350,1.928
5351,1.924
5352,1.917
5353,1.913
5354,1.91
5355,1.913
5356,1.917
5357,1.921
5358,1.921
5359,1.921
5360,1.924
5361,1.928
5362,1.928
5363,1.924
5364,1.924
5365,1.924
5366,1.931
5367,1.935
5368,1.939
5369,1.935
5370,1.935
5371,1.939
5372,1.935
5373,1.935
5374,1.928
5375,1.924
5376,1.921
5377,1.924
5378,1.924
5379,1.917
5380,1.917
5381,1.924
5382,1.931
5383,1.939
5384,1.942
5385,1.949
5386,1.953
5387,1.957
5388,1.953
5389,1.949
5390,1.946
5391,1.939
5392,1.931
5393,1.931
5394,1.931
5395,1.931
5396,1.928
5397,1.928
5398,1.928
5399,1.931
5400,1.935
5401,1.931
5402,1.935
5403,1.939
5404,1.942
5405,1.939
5406,1.939
5407,1.939
5408,1.942
5409,1.939
5410,1.939
5411,1.931
5412,1.928
5413,1.924
5414,1.917
5415,1.921
5416,1.917
5417,1.921
5418,1.924
5419,1.924
5420,1.917
5421,1.921
5422,1.924
5423,1.931
5424,1.935
5425,1.939
5426,1.942
5427,1.942
5428,1.946
5429,1.949
5430,1.949
5431,1.946
5432,1.942
5433,1.939
5434,1.931
5435,1.928
5436,1.924
5437,1.924
5438,1.924
5439,1.928
5440,1.928
5441,1.931
5442,1.931
5443,1.931
5444,1.928
5445,1.928
5446,1.924
5447,1.924
5448,1.924
5449,1.928
5450,1.928
5451,1.928
5452,1.924
5453,1.928
5454,1.931
5455,1.942
5456,1.949
5457,1.953
5458,1.957
5459,1.953
5460,1.953
5461,1.953
5462,1.949
5463,1.949
5464,1.946
5465,1.942
5466,1.939
5467,1.935
5468,1.931
5469,1.931
5470,1.924
5471,1.924
5472,1.921
5473,1.924
5474,1.928
5475,1.931
5476,1.931
5477,1.924
5478,1.924
5479,1.921
5480,1.921
5481,1.924
5482,1.928
5483,1.935
5484,1.942
5485,1.946
5486,1.949
5487,1.953
5488,1.953
5489,1.949
5490,1.957
5491,1.953
5492,1.953
5493,1.953
5494,1.957
5495,1.957
5496,1.957
5497,1.953
5498,1.953
5499,1.949
5500,1.949
5501,1.953
5502,1.946
5503,1.946
5504,1.946
5505,1.946
5506,1.942
5507,1.939
5508,1.935
5509,1.931
5510,1.931
5511,1.935
5512,1.942
5513,1.939
5514,1.939
5515,1.935
5516,1.931
5517,1.928
5518,1.924
5519,1.917
5520,1.913
5521,1.906
5522,1.91
5523,1.913
5524,1.913
5525,1.913
5526,1.91
5527,1.906
5528,1.906
5529,1.906
5530,1.906
5531,1.906
5532,1.913
5533,1.917
5534,1.921
5535,1.921
5536,1.921
5537,1.921
5538,1.917
5539,1.913
5540,1.913
5541,1.91
5542,1.91
5543,1.906
5544,1.906
5545,1.902
5546,1.902
5547,1.899
5548,1.899
5549,1.895
5550,1.888
5551,1.874
5552,1.855
5553,1.834
5554,1.816
5555,1.801
5556,1.794
5557,1.798
5558,1.816
5559,1.855
5560,1.924
5561,2.018
5562,2.145
5563,2.289
5564,2.43
5565,2.564
5566,2.676
5567,2.763
5568,2.821
5569,2.85
5570,2.843
5571,2.792
5572,2.705
5573,2.597
5574,2.474
5575,2.351
5576,2.232
5577,2.138
5578,2.054
5579,1.996
5580,1.96
5581,1.946
5582,1.939
5583,1.939
5584,1.939
5585,1.939
5586,1.931
5587,1.917
5588,1.902
5589,1.881
5590,1.866
5591,1.855
5592,1.848
5593,1.845
5594,1.852
5595,1.852
5596,1.852
5597,1.848
5598,1.841
5599,1.83
5600,1.823
5601,1.819
5602,1.819
5603,1.816
5604,1.816
5605,1.819
5606,1.819
5607,1.816
5608,1.816
5609,1.816
5610,1.812
5611,1.812
5612,1.808
5613,1.805
5614,1.801
5615,1.794
5616,1.79
5617,1.79
5618,1.79
5619,1.794
5620,1.805
5621,1.805
5622,1.808
5623,1.812
5624,1.812
5625,1.816
5626,1.816
5627,1.812
5628,1.812
5629,1.816
5630,1.816
5631,1.816
5632,1.812
5633,1.812
5634,1.816
5635,1.816
5636,1.816
5637,1.816
5638,1.816
5639,1.819
5640,1.826
5641,1.837
5642,1.845
5643,1.841
5644,1.834
5645,1.826
5646,1.826
5647,1.826
5648,1.83
5649,1.826
5650,1.823
5651,1.823
5652,1.83
5653,1.834
5654,1.837
5655,1.845
5656,1.848
5657,1.855
5658,1.859
5659,1.859
5660,1.859
5661,1.855
5662,1.852
5663,1.852
5664,1.845
5665,1.841
5666,1.845
5667,1.848
5668,1.852
5669,1.855
5670,1.859
5671,1.863
5672,1.87
5673,1.877
5674,1.884
5675,1.888
5676,1.888
5677,1.888
5678,1.888
5679,1.888
5680,1.892
5681,1.895
5682,1.902
5683,1.91
5684,1.917
5685,1.928
5686,1.928
5687,1.935
5688,1.939
5689,1.942
5690,1.949
5691,1.953
5692,1.957
5693,1.957
5694,1.957
5695,1.957
5696,1.96
5697,1.96
5698,1.957
5699,1.957
5700,1.953
5701,1.949
5702,1.946
5703,1.946
5704,1.946
5705,1.949
5706,1.946
5707,1.949
5708,1.946
5709,1.942
5710,1.939
5711,1.931
5712,1.928
5713,1.921
5714,1.913
5715,1.906
5716,1.899
5717,1.892
5718,1.881
5719,1.87
5720,1.859
5721,1.848
5722,1.837
5723,1.823
5724,1.812
5725,1.805
5726,1.798
5727,1.79
5728,1.787
5729,1.776
5730,1.765
5731,1.754
5732,1.747
5733,1.743
5734,1.743
5735,1.743
5736,1.74
5737,1.736
5738,1.732
5739,1.729
5740,1.722
5741,1.718
5742,1.718
5743,1.718
5744,1.718
5745,1.714
5746,1.711
5747,1.707
5748,1.704
5749,1.7
5750,1.7
5751,1.696
5752,1.693
5753,1.693
5754,1.689
5755,1.685
5756,1.685
5757,1.685
5758,1.685
5759,1.689
5760,1.693
5761,1.696
5762,1.693
5763,1.693
5764,1.689
5765,1.689
5766,1.685
5767,1.685
5768,1.678
5769,1.675
5770,1.675
5771,1.675
5772,1.678
5773,1.678
5774,1.682
5775,1.685
5776,1.685
5777,1.685
5778,1.685
5779,1.685
5780,1.682
5781,1.678
5782,1.682
5783,1.685
5784,1.682
5785,1.682
5786,1.682
5787,1.678
5788,1.675
5789,1.667
5790,1.667
5791,1.667
5792,1.667
5793,1.675
5794,1.675
5795,1.675
5796,1.675
5797,1.675
5798,1.675
5799,1.671
5800,1.671
5801,1.667
5802,1.667
5803,1.667
5804,1.667
5805,1.66
5806,1.653
5807,1.646
5808,1.646
5809,1.646
5810,1.649
5811,1.657
5812,1.66
5813,1.667
5814,1.664
5815,1.66
5816,1.657
5817,1.649
5818,1.642
5819,1.638
5820,1.638
5821,1.642
5822,1.642
5823,1.646
5824,1.646
5825,1.646
5826,1.646
5827,1.638
5828,1.635
5829,1.635
5830,1.631
5831,1.631
5832,1.631
5833,1.631
5834,1.628
5835,1.624
5836,1.62
5837,1.613
5838,1.609
5839,1.606
5840,1.606
5841,1.606
5842,1.606
5843,1.606
5844,1.606
5845,1.602
5846,1.595
5847,1.591
5848,1.584
5849,1.581
5850,1.581
5851,1.577
5852,1.577
5853,1.577
5854,1.577
5855,1.573
5856,1.57
5857,1.573
5858,1.577
5859,1.577
5860,1.577
5861,1.581
5862,1.581
5863,1.581
5864,1.577
5865,1.573
5866,1.57
5867,1.57
5868,1.566
5869,1.566
5870,1.562
5871,1.559
5872,1.559
5873,1.559
5874,1.559
5875,1.555
5876,1.555
5877,1.552
5878,1.548
5879,1.544
5880,1.544
5881,1.537
5882,1.537
5883,1.541
5884,1.541
5885,1.537
5886,1.534
5887,1.53
5888,1.53
5889,1.526
5890,1.523
5891,1.519
5892,1.515
5893,1.512
5894,1.505
5895,1.501
5896,1.501
5897,1.505
5898,1.505
5899,1.508
5900,1.508
5901,1.512
5902,1.512
5903,1.515
5904,1.512
5905,1.508
5906,1.505
5907,1.497
5908,1.494
5909,1.49
5910,1.49
5911,1.487
5912,1.49
5913,1.487
5914,1.483
5915,1.483
5916,1.483
5917,1.487
5918,1.487
5919,1.487
5920,1.483
5921,1.479
5922,1.476
5923,1.476
5924,1.476
5925,1.476
5926,1.476
5927,1.476
5928,1.476
5929,1.476
5930,1.472
5931,1.472
5932,1.472
5933,1.472
5934,1.472
5935,1.472
5936,1.472
5937,1.468
5938,1.468
5939,1.468
5940,1.465
5941,1.461
5942,1.454
5943,1.45
5944,1.45
5945,1.454
5946,1.458
5947,1.458
5948,1.454
5949,1.45
5950,1.447
5951,1.443
5952,1.439
5953,1.432
5954,1.429
5955,1.429
5956,1.429
5957,1.429
5958,1.432
5959,1.436
5960,1.436
5961,1.432
5962,1.429
5963,1.425
5964,1.429
5965,1.429
5966,1.432
5967,1.429
5968,1.429
5969,1.425
5970,1.425
5971,1.418
5972,1.411
5973,1.411
5974,1.407
5975,1.407
5976,1.407
5977,1.411
5978,1.407
5979,1.403
5980,1.403
5981,1.396
5982,1.396
5983,1.392
5984,1.396
5985,1.396
5986,1.396
5987,1.396
5988,1.396
5989,1.392
5990,1.389
5991,1.389
5992,1.392
5993,1.392
5994,1.392
5995,1.392
5996,1.392
5997,1.389
5998,1.389
5999,1.389
6000,1.385
6001,1.382
6002,1.378
6003,1.378
6004,1.374
6005,1.374
6006,1.374
6007,1.374
6008,1.374
6009,1.374
6010,1.378
6011,1.378
6012,1.378
6013,1.374
6014,1.374
6015,1.378
6016,1.378
6017,1.378
6018,1.378
6019,1.371
6020,1.367
6021,1.367
6022,1.371
6023,1.382
6024,1.392
6025,1.403
6026,1.411
6027,1.414
6028,1.414
6029,1.418
6030,1.418
6031,1.418
6032,1.418
6033,1.418
6034,1.418
6035,1.418
6036,1.418
6037,1.418
6038,1.418
6039,1.414
6040,1.414
6041,1.411
6042,1.407
6043,1.403
6044,1.403
6045,1.403
6046,1.4
6047,1.4
6048,1.396
6049,1.389
6050,1.382
6051,1.378
6052,1.378
6053,1.378
6054,1.378
6055,1.374
6056,1.374
6057,1.374
6058,1.374
6059,1.374
6060,1.374
6061,1.378
6062,1.382
6063,1.382
6064,1.382
6065,1.385
6066,1.389
6067,1.396
6068,1.4
6069,1.4
6070,1.4
6071,1.403
6072,1.407
6073,1.411
6074,1.414
6075,1.414
6076,1.411
6077,1.411
6078,1.407
6079,1.407
6080,1.403
6081,1.403
6082,1.403
6083,1.396
6084,1.389
6085,1.382
6086,1.371
6087,1.356
6088,1.345
6089,1.342
6090,1.345
6091,1.36
6092,1.396
6093,1.454
6094,1.544
6095,1.667
6096,1.812
6097,1.949
6098,2.076
6099,2.188
6100,2.275
6101,2.333
6102,2.358
6103,2.34
6104,2.286
6105,2.203
6106,2.094
6107,1.978
6108,1.855
6109,1.747
6110,1.657
6111,1.588
6112,1.541
6113,1.512
6114,1.497
6115,1.494
6116,1.494
6117,1.49
6118,1.49
6119,1.479
6120,1.472
6121,1.461
6122,1.45
6123,1.439
6124,1.429
6125,1.425
6126,1.425
6127,1.432
6128,1.439
6129,1.439
6130,1.439
6131,1.436
6132,1.436
6133,1.436
6134,1.436
6135,1.436
6136,1.432
6137,1.436
6138,1.439
6139,1.447
6140,1.447
6141,1.45
6142,1.454
6143,1.454
6144,1.454
6145,1.458
6146,1.458
6147,1.458
6148,1.458
6149,1.461
6150,1.465
6151,1.465
6152,1.465
6153,1.468
6154,1.468
6155,1.472
6156,1.472
6157,1.476
6158,1.479
6159,1.483
6160,1.494
6161,1.501
6162,1.508
6163,1.515
6164,1.519
6165,1.523
6166,1.526
6167,1.53
6168,1.53
6169,1.534
6170,1.534
6171,1.537
6172,1.541
6173,1.541
6174,1.541
6175,1.544
6176,1.552
6177,1.555
6178,1.559
6179,1.566
6180,1.573
6181,1.577
6182,1.581
6183,1.584
6184,1.588
6185,1.591
6186,1.599
6187,1.606
6188,1.617
6189,1.624
6190,1.631
6191,1.638
6192,1.646
6193,1.653
6194,1.664
6195,1.671
6196,1.675
6197,1.682
6198,1.685
6199,1.689
6200,1.693
6201,1.696
6202,1.704
6203,1.711
6204,1.722
6205,1.729
6206,1.736
6207,1.747
6208,1.754
6209,1.761
6210,1.769
6211,1.772
6212,1.776
6213,1.779
6214,1.783
6215,1.794
6216,1.801
6217,1.808
6218,1.816
6219,1.823
6220,1.826
6221,1.834
6222,1.837
6223,1.845
6224,1.848
6225,1.859
6226,1.87
6227,1.877
6228,1.884
6229,1.888
6230,1.892
6231,1.895
6232,1.899
6233,1.902
6234,1.906
6235,1.91
6236,1.913
6237,1.917
6238,1.917
6239,1.921
6240,1.921
6241,1.921
6242,1.921
6243,1.924
6244,1.928
6245,1.928
6246,1.931
6247,1.931
6248,1.931
6249,1.924
6250,1.917
6251,1.91
6252,1.906
6253,1.899
6254,1.892
6255,1.881
6256,1.877
6257,1.87
6258,1.863
6259,1.852
6260,1.845
6261,1.841
6262,1.841
6263,1.845
6264,1.848
6265,1.848
6266,1.848
6267,1.852
6268,1.855
6269,1.855
6270,1.852
6271,1.852
6272,1.852
6273,1.855
6274,1.855
6275,1.863
6276,1.866
6277,1.87
6278,1.874
6279,1.877
6280,1.884
6281,1.884
6282,1.888
6283,1.895
6284,1.899
6285,1.906
6286,1.91
6287,1.913
6288,1.921
6289,1.924
6290,1.931
6291,1.939
6292,1.942
6293,1.949
6294,1.953
6295,1.957
6296,1.964
6297,1.968
6298,1.975
6299,1.978
6300,1.982
6301,1.989
6302,1.989
6303,1.989
6304,1.989
6305,1.993
6306,1.996
6307,2.004
6308,2.007
6309,2.011
6310,2.015
6311,2.022
6312,2.029
6313,2.033
6314,2.036
6315,2.043
6316,2.047
6317,2.051
6318,2.058
6319,2.062
6320,2.069
6321,2.076
6322,2.08
6323,2.087
6324,2.087
6325,2.087
6326,2.087
6327,2.091
6328,2.094
6329,2.098
6330,2.105
6331,2.109
6332,2.116
6333,2.123
6334,2.13
6335,2.13
6336,2.134
6337,2.134
6338,2.138
6339,2.138
6340,2.145
6341,2.148
6342,2.156
6343,2.163
6344,2.166
6345,2.17
6346,2.177
6347,2.181
6348,2.188
6349,2.195
6350,2.206
6351,2.213
6352,2.221
6353,2.228
6354,2.235
6355,2.242
6356,2.246
6357,2.25
6358,2.253
6359,2.253
6360,2.253
6361,2.253
6362,2.257
6363,2.257
6364,2.257
6365,2.257
6366,2.261
6367,2.261
6368,2.264
6369,2.271
6370,2.279
6371,2.286
6372,2.293
6373,2.3
6374,2.304
6375,2.311
6376,2.318
6377,2.322
6378,2.326
6379,2.329
6380,2.333
6381,2.34
6382,2.344
6383,2.347
6384,2.351
6385,2.358
6386,2.362
6387,2.365
6388,2.373
6389,2.38
6390,2.383
6391,2.387
6392,2.387
6393,2.391
6394,2.394
6395,2.398
6396,2.402
6397,2.405
6398,2.412
6399,2.416
6400,2.42
6401,2.42
6402,2.423
6403,2.423
6404,2.427
6405,2.43
6406,2.438
6407,2.441
6408,2.449
6409,2.452
6410,2.459
6411,2.459
6412,2.463
6413,2.467
6414,2.47
6415,2.478
6416,2.481
6417,2.485
6418,2.488
6419,2.492
6420,2.499
6421,2.492
6422,2.492
6423,2.488
6424,2.488
6425,2.492
6426,2.496
6427,2.503
6428,2.51
6429,2.514
6430,2.517
6431,2.525
6432,2.521
6433,2.525
6434,2.525
6435,2.528
6436,2.532
6437,2.535
6438,2.535
6439,2.535
6440,2.535
6441,2.539
6442,2.543
6443,2.539
6444,2.539
6445,2.546
6446,2.55
6447,2.553
6448,2.561
6449,2.568
6450,2.572
6451,2.579
6452,2.582
6453,2.59
6454,2.593
6455,2.597
6456,2.604
6457,2.608
6458,2.608
6459,2.608
6460,2.608
6461,2.604
6462,2.604
6463,2.611
6464,2.615
6465,2.615
6466,2.622
6467,2.629
6468,2.633
6469,2.637
6470,2.637
6471,2.637
6472,2.64
6473,2.644
6474,2.655
6475,2.655
6476,2.658
6477,2.662
6478,2.666
6479,2.673
6480,2.676
6481,2.68
6482,2.68
6483,2.68
6484,2.68
6485,2.68
6486,2.673
6487,2.673
6488,2.676
6489,2.676
6490,2.676
6491,2.676
6492,2.68
6493,2.687
6494,2.695
6495,2.698
6496,2.709
6497,2.709
6498,2.713
6499,2.713
6500,2.713
6501,2.716
6502,2.716
6503,2.72
6504,2.72
6505,2.72
6506,2.72
6507,2.72
6508,2.713
6509,2.709
6510,2.705
6511,2.702
6512,2.705
6513,2.709
6514,2.716
6515,2.72
6516,2.723
6517,2.734
6518,2.738
6519,2.738
6520,2.738
6521,2.742
6522,2.742
6523,2.745
6524,2.745
6525,2.749
6526,2.752
6527,2.752
6528,2.756
6529,2.749
6530,2.745
6531,2.745
6532,2.745
6533,2.745
6534,2.745
6535,2.745
6536,2.742
6537,2.738
6538,2.731
6539,2.723
6540,2.716
6541,2.716
6542,2.713
6543,2.713
6544,2.716
6545,2.72
6546,2.727
6547,2.734
6548,2.742
6549,2.745
6550,2.749
6551,2.752
6552,2.76
6553,2.763
6554,2.767
6555,2.767
6556,2.77
6557,2.774
6558,2.774
6559,2.774
6560,2.774
6561,2.774
6562,2.774
6563,2.774
6564,2.774
6565,2.774
6566,2.77
6567,2.763
6568,2.756
6569,2.749
6570,2.749
6571,2.749
6572,2.752
6573,2.752
6574,2.752
6575,2.749
6576,2.749
6577,2.745
6578,2.742
6579,2.738
6580,2.738
6581,2.734
6582,2.734
6583,2.731
6584,2.731
6585,2.731
6586,2.731
6587,2.731
6588,2.734
6589,2.731
6590,2.731
6591,2.727
6592,2.727
6593,2.727
6594,2.723
6595,2.723
6596,2.723
6597,2.723
6598,2.723
6599,2.723
6600,2.723
6601,2.72
6602,2.716
6603,2.709
6604,2.709
6605,2.698
6606,2.687
6607,2.684
6608,2.676
6609,2.673
6610,2.666
6611,2.655
6612,2.644
6613,2.633
6614,2.619
6615,2.6
6616,2.575
6617,2.557
6618,2.553
6619,2.561
6620,2.579
6621,2.629
6622,2.709
6623,2.832
6624,2.987
6625,3.165
6626,3.327
6627,3.472
6628,3.581
6629,3.599
6630,3.602
6631,3.599
6632,3.588
6633,3.548
6634,3.454
6635,3.309
6636,3.15
6637,2.98
6638,2.836
6639,2.72
6640,2.644
6641,2.608
6642,2.6
6643,2.608
6644,2.622
6645,2.637
6646,2.651
6647,2.658
6648,2.651
6649,2.637
6650,2.615
6651,2.593
6652,2.572
6653,2.553
6654,2.535
6655,2.525
6656,2.517
6657,2.51
6658,2.51
6659,2.506
6660,2.503
6661,2.503
6662,2.499
6663,2.499
6664,2.499
6665,2.496
6666,2.496
6667,2.496
6668,2.496
6669,2.488
6670,2.481
6671,2.478
6672,2.47
6673,2.463
6674,2.459
6675,2.459
6676,2.459
6677,2.459
6678,2.459
6679,2.459
6680,2.452
6681,2.449
6682,2.445
6683,2.441
6684,2.434
6685,2.43
6686,2.427
6687,2.427
6688,2.43
6689,2.434
6690,2.438
6691,2.438
6692,2.438
6693,2.438
6694,2.438
6695,2.438
6696,2.438
6697,2.441
6698,2.441
6699,2.441
6700,2.438
6701,2.441
6702,2.438
6703,2.438
6704,2.438
6705,2.438
6706,2.438
6707,2.434
6708,2.434
6709,2.43
6710,2.427
6711,2.42
6712,2.42
6713,2.412
6714,2.409
6715,2.409
6716,2.412
6717,2.412
6718,2.412
6719,2.412
6720,2.409
6721,2.409
6722,2.412
6723,2.416
6724,2.412
6725,2.412
6726,2.409
6727,2.405
6728,2.402
6729,2.402
6730,2.402
6731,2.405
6732,2.412
6733,2.42
6734,2.42
6735,2.423
6736,2.43
6737,2.434
6738,2.438
6739,2.438
6740,2.438
6741,2.434
6742,2.434
6743,2.43
6744,2.434
6745,2.427
6746,2.427
6747,2.427
6748,2.427
6749,2.423
6750,2.423
6751,2.423
6752,2.427
6753,2.43
6754,2.43
6755,2.438
6756,2.434
6757,2.434
6758,2.434
6759,2.434
6760,2.43
6761,2.43
6762,2.43
6763,2.43
6764,2.427
6765,2.42
6766,2.412
6767,2.398
6768,2.387
6769,2.376
6770,2.369
6771,2.362
6772,2.355
6773,2.344
6774,2.336
6775,2.326
6776,2.315
6777,2.3
6778,2.282
6779,2.271
6780,2.257
6781,2.25
6782,2.239
6783,2.228
6784,2.213
6785,2.199
6786,2.181
6787,2.17
6788,2.156
6789,2.145
6790,2.138
6791,2.13
6792,2.123
6793,2.116
6794,2.101
6795,2.087
6796,2.076
6797,2.065
6798,2.058
6799,2.047
6800,2.043
6801,2.043
6802,2.04
6803,2.04
6804,2.04
6805,2.036
6806,2.029
6807,2.022
6808,2.015
6809,2.011
6810,2.0
6811,1.996
6812,1.996
6813,1.996
6814,1.996
6815,1.996
6816,2.0
6817,2.0
6818,2.004
6819,2.004
6820,2.007
6821,2.004
6822,2.0
6823,1.996
6824,1.989
6825,1.986
6826,1.978
6827,1.975
6828,1.975
6829,1.978
6830,1.978
6831,1.978
6832,1.978
6833,1.975
6834,1.975
6835,1.971
6836,1.971
6837,1.971
6838,1.975
6839,1.978
6840,1.986
6841,1.993
6842,2.0
6843,2.0
6844,2.0
6845,1.996
6846,1.993
6847,1.993
6848,1.993
6849,1.993
6850,1.989
6851,1.989
6852,1.989
6853,1.982
6854,1.982
6855,1.978
6856,1.975
6857,1.975
6858,1.975
6859,1.975
6860,1.978
6861,1.978
6862,1.975
6863,1.978
6864,1.975
6865,1.975
6866,1.975
6867,1.975
6868,1.975
6869,1.975
6870,1.975
6871,1.975
6872,1.978
6873,1.978
6874,1.986
6875,1.986
6876,1.986
6877,1.982
6878,1.978
6879,1.975
6880,1.975
6881,1.971
6882,1.971
6883,1.971
6884,1.971
6885,1.975
6886,1.975
6887,1.975
6888,1.975
6889,1.978
6890,1.978
6891,1.982
6892,1.982
6893,1.982
6894,1.982
6895,1.978
6896,1.975
6897,1.971
6898,1.968
6899,1.968
6900,1.964
6901,1.96
6902,1.96
6903,1.964
6904,1.971
6905,1.978
6906,1.986
6907,1.986
6908,1.989
6909,1.989
6910,1.986
6911,1.982
6912,1.975
6913,1.971
6914,1.968
6915,1.968
6916,1.968
6917,1.968
6918,1.968
6919,1.971
6920,1.971
6921,1.968
6922,1.968
6923,1.964
6924,1.964
6925,1.964
6926,1.96
6927,1.96
6928,1.96
6929,1.957
6930,1.953
6931,1.949
6932,1.946
6933,1.939
6934,1.931
6935,1.928
6936,1.924
6937,1.921
6938,1.917
6939,1.917
6940,1.91
6941,1.91
6942,1.91
6943,1.91
6944,1.906
6945,1.902
6946,1.899
6947,1.895
6948,1.892
6949,1.892
6950,1.888
6951,1.884
6952,1.884
6953,1.884
6954,1.888
6955,1.892
6956,1.895
6957,1.892
6958,1.892
6959,1.888
6960,1.892
6961,1.888
6962,1.888
6963,1.892
6964,1.888
6965,1.884
6966,1.877
6967,1.874
6968,1.866
6969,1.859
6970,1.852
6971,1.848
6972,1.845
6973,1.841
6974,1.837
6975,1.834
6976,1.83
6977,1.823
6978,1.819
6979,1.816
6980,1.816
6981,1.816
6982,1.816
6983,1.816
6984,1.812
6985,1.812
6986,1.808
6987,1.808
6988,1.808
6989,1.805
6990,1.798
6991,1.794
6992,1.787
6993,1.779
6994,1.772
6995,1.769
6996,1.769
6997,1.765
6998,1.765
6999,1.761
7000,1.761
7001,1.761
7002,1.758
7003,1.758
7004,1.754
7005,1.751
7006,1.747
7007,1.743
7008,1.74
7009,1.736
7010,1.736
7011,1.74
7012,1.74
7013,1.74
7014,1.743
7015,1.74
7016,1.732
7017,1.725
7018,1.718
7019,1.714
7020,1.711
7021,1.711
7022,1.707
7023,1.707
7024,1.707
7025,1.711
7026,1.711
7027,1.711
7028,1.711
7029,1.711
7030,1.711
7031,1.707
7032,1.704
7033,1.704
7034,1.704
7035,1.7
7036,1.7
7037,1.693
7038,1.689
7039,1.685
7040,1.685
7041,1.689
7042,1.689
7043,1.693
7044,1.696
7045,1.704
7046,1.707
7047,1.711
7048,1.704
7049,1.704
7050,1.704
7051,1.7
7052,1.7
7053,1.696
7054,1.696
7055,1.693
7056,1.689
7057,1.682
7058,1.682
7059,1.671
7060,1.667
7061,1.664
7062,1.664
7063,1.664
7064,1.664
7065,1.66
7066,1.653
7067,1.649
7068,1.646
7069,1.638
7070,1.635
7071,1.628
7072,1.624
7073,1.62
7074,1.617
7075,1.617
7076,1.617
7077,1.617
7078,1.613
7079,1.62
7080,1.617
7081,1.62
7082,1.62
7083,1.62
7084,1.617
7085,1.613
7086,1.609
7087,1.606
7088,1.602
7089,1.599
7090,1.602
7091,1.599
7092,1.595
7093,1.591
7094,1.591
7095,1.591
7096,1.591
7097,1.591
7098,1.595
7099,1.591
7100,1.588
7101,1.581
7102,1.57
7103,1.559
7104,1.548
7105,1.541
7106,1.526
7107,1.512
7108,1.497
7109,1.49
7110,1.487
7111,1.497
7112,1.523
7113,1.581
7114,1.682
7115,1.823
7116,1.989
7117,2.163
7118,2.326
7119,2.47
7120,2.579
7121,2.644
7122,2.673
7123,2.651
7124,2.582
7125,2.478
7126,2.34
7127,2.185
7128,2.029
7129,1.884
7130,1.761
7131,1.675
7132,1.624
7133,1.602
7134,1.595
7135,1.606
7136,1.617
7137,1.628
7138,1.631
7139,1.628
7140,1.613
7141,1.595
7142,1.577
7143,1.559
7144,1.541
7145,1.526
7146,1.519
7147,1.515
7148,1.515
7149,1.519
7150,1.523
7151,1.526
7152,1.53
7153,1.534
7154,1.537
7155,1.541
7156,1.541
7157,1.537
7158,1.534
7159,1.53
7160,1.53
7161,1.526
7162,1.526
7163,1.53
7164,1.53
7165,1.534
7166,1.537
7167,1.541
7168,1.544
7169,1.548
7170,1.552
7171,1.559
7172,1.559
7173,1.562
7174,1.566
7175,1.57
7176,1.577
7177,1.581
7178,1.584
7179,1.588
7180,1.588
7181,1.591
7182,1.595
7183,1.595
7184,1.599
7185,1.599
7186,1.599
7187,1.599
7188,1.599
7189,1.595
7190,1.599
7191,1.599
7192,1.602
7193,1.602
7194,1.606
7195,1.606
7196,1.613
7197,1.617
7198,1.624
7199,1.624
7200,1.628
7201,1.631
7202,1.635
7203,1.642
7204,1.646
7205,1.649
7206,1.653
7207,1.657
7208,1.66
7209,1.66
7210,1.66
7211,1.664
7212,1.664
7213,1.667
7214,1.671
7215,1.675
7216,1.675
7217,1.678
7218,1.682
7219,1.685
7220,1.689
7221,1.685
7222,1.689
7223,1.689
7224,1.693
7225,1.696
7226,1.707
7227,1.714
7228,1.725
7229,1.732
7230,1.74
7231,1.747
7232,1.751
7233,1.754
7234,1.761
7235,1.769
7236,1.776
7237,1.783
7238,1.794
7239,1.805
7240,1.808
7241,1.819
7242,1.823
7243,1.826
7244,1.83
7245,1.83
7246,1.83
7247,1.83
7248,1.83
7249,1.83
7250,1.834
7251,1.837
7252,1.845
7253,1.845
7254,1.845
7255,1.845
7256,1.841
7257,1.837
7258,1.837
7259,1.837
7260,1.841
7261,1.845
7262,1.845
7263,1.841
7264,1.834
7265,1.826
7266,1.819
7267,1.808
7268,1.798
7269,1.783
7270,1.772
7271,1.761
7272,1.751
7273,1.743
7274,1.736
7275,1.725
7276,1.718
7277,1.707
7278,1.696
7279,1.689
7280,1.682
7281,1.671
7282,1.66
7283,1.646
7284,1.635
7285,1.624
7286,1.613
7287,1.602
7288,1.591
7289,1.581
7290,1.573
7291,1.57
7292,1.566
7293,1.562
7294,1.562
7295,1.562
7296,1.566
7297,1.562
7298,1.566
7299,1.566
7300,1.566
7301,1.57
7302,1.57
7303,1.566
7304,1.566
7305,1.562
7306,1.562
7307,1.562
7308,1.566
7309,1.566
7310,1.57
7311,1.573
7312,1.573
7313,1.573
7314,1.573
7315,1.573
7316,1.573
7317,1.573
7318,1.57
7319,1.566
7320,1.562
7321,1.562
7322,1.562
7323,1.562
7324,1.566
7325,1.566
7326,1.57
7327,1.57
7328,1.573
7329,1.57
7330,1.57
7331,1.566
7332,1.566
7333,1.57
7334,1.573
7335,1.577
7336,1.581
7337,1.584
7338,1.584
7339,1.588
7340,1.584
7341,1.584
7342,1.581
7343,1.581
7344,1.581
7345,1.584
7346,1.584
7347,1.588
7348,1.588
7349,1.591
7350,1.595
7351,1.595
7352,1.599
7353,1.599
7354,1.602
7355,1.602
7356,1.602
7357,1.606
7358,1.609
7359,1.613
7360,1.62
7361,1.62
7362,1.624
7363,1.624
7364,1.628
7365,1.628
7366,1.631
7367,1.631
7368,1.635
7369,1.631
7370,1.631
7371,1.631
7372,1.628
7373,1.628
7374,1.628
7375,1.631
7376,1.635
7377,1.635
7378,1.638
7379,1.642
7380,1.642
7381,1.638
7382,1.642
7383,1.642
7384,1.642
7385,1.646
7386,1.649
7387,1.653
7388,1.653
7389,1.653
7390,1.649
7391,1.649
7392,1.646
7393,1.649
7394,1.642
7395,1.642
7396,1.646
7397,1.646
7398,1.649
7399,1.649
7400,1.653
7401,1.657
7402,1.66
7403,1.667
7404,1.671
7405,1.675
7406,1.678
7407,1.682
7408,1.682
7409,1.682
7410,1.682
7411,1.678
7412,1.675
7413,1.671
7414,1.671
7415,1.671
7416,1.671
7417,1.671
7418,1.675
7419,1.675
7420,1.675
7421,1.671
7422,1.667
7423,1.667
7424,1.671
7425,1.675
7426,1.675
7427,1.675
7428,1.675
7429,1.675
7430,1.671
7431,1.671
7432,1.667
7433,1.671
7434,1.671
7435,1.671
7436,1.675
7437,1.671
7438,1.671
7439,1.671
7440,1.667
7441,1.671
7442,1.671
7443,1.675
7444,1.682
7445,1.685
7446,1.685
7447,1.689
7448,1.685
7449,1.685
7450,1.682
7451,1.685
7452,1.682
7453,1.685
7454,1.685
7455,1.689
7456,1.689
7457,1.689
7458,1.693
7459,1.693
7460,1.693
7461,1.693
7462,1.693
7463,1.693
7464,1.693
7465,1.689
7466,1.689
7467,1.685
7468,1.685
7469,1.685
7470,1.685
7471,1.685
7472,1.689
7473,1.689
7474,1.689
7475,1.693
7476,1.693
7477,1.696
7478,1.696
7479,1.704
7480,1.707
7481,1.707
7482,1.711
7483,1.714
7484,1.714
7485,1.718
7486,1.722
7487,1.725
7488,1.729
7489,1.729
7490,1.736
7491,1.732
7492,1.732
7493,1.736
7494,1.74
7495,1.743
7496,1.743
7497,1.743
7498,1.74
7499,1.736
7500,1.732
7501,1.732
7502,1.729
7503,1.729
7504,1.725
7505,1.722
7506,1.718
7507,1.714
7508,1.711
7509,1.711
7510,1.711
7511,1.714
7512,1.722
7513,1.722
7514,1.725
7515,1.729
7516,1.732
7517,1.732
7518,1.732
7519,1.732
7520,1.729
7521,1.725
7522,1.722
7523,1.725
7524,1.722
7525,1.722
7526,1.722
7527,1.722
7528,1.725
7529,1.722
7530,1.722
7531,1.722
7532,1.722
7533,1.722
7534,1.722
7535,1.718
7536,1.722
7537,1.722
7538,1.725
7539,1.725
7540,1.732
7541,1.736
7542,1.743
7543,1.747
7544,1.754
7545,1.758
7546,1.761
7547,1.769
7548,1.776
7549,1.783
7550,1.787
7551,1.79
7552,1.798
7553,1.798
7554,1.801
7555,1.805
7556,1.801
7557,1.798
7558,1.794
7559,1.794
7560,1.794
7561,1.787
7562,1.783
7563,1.779
7564,1.776
7565,1.772
7566,1.772
7567,1.769
7568,1.765
7569,1.761
7570,1.758
7571,1.754
7572,1.751
7573,1.751
7574,1.747
7575,1.747
7576,1.747
7577,1.747
7578,1.743
7579,1.743
7580,1.747
7581,1.754
7582,1.758
7583,1.761
7584,1.765
7585,1.765
7586,1.765
7587,1.761
7588,1.765
7589,1.761
7590,1.761
7591,1.761
7592,1.761
7593,1.761
7594,1.761
7595,1.765
7596,1.769
7597,1.772
7598,1.776
7599,1.776
7600,1.776
7601,1.776
7602,1.772
7603,1.765
7604,1.758
7605,1.747
7606,1.736
7607,1.725
7608,1.714
7609,1.696
7610,1.682
7611,1.667
7612,1.664
7613,1.671
7614,1.689
7615,1.736
7616,1.816
7617,1.924
7618,2.065
7619,2.228
7620,2.387
7621,2.532
7622,2.658
7623,2.752
7624,2.807
7625,2.825
7626,2.799
7627,2.727
7628,2.619
7629,2.478
7630,2.329
7631,2.185
7632,2.047
7633,1.935
7634,1.855
7635,1.808
7636,1.79
7637,1.787
7638,1.79
7639,1.798
7640,1.805
7641,1.805
7642,1.801
7643,1.79
7644,1.776
7645,1.765
7646,1.754
7647,1.743
7648,1.736
7649,1.732
7650,1.725
7651,1.718
7652,1.714
7653,1.707
7654,1.707
7655,1.707
7656,1.707
7657,1.711
7658,1.711
7659,1.714
7660,1.714
7661,1.711
7662,1.707
7663,1.704
7664,1.696
7665,1.693
7666,1.689
7667,1.693
7668,1.693
7669,1.693
7670,1.696
7671,1.7
7672,1.704
7673,1.707
7674,1.711
7675,1.711
7676,1.711
7677,1.714
7678,1.711
7679,1.711
7680,1.707
7681,1.704
7682,1.7
7683,1.7
7684,1.7
7685,1.704
7686,1.707
7687,1.707
7688,1.711
7689,1.711
7690,1.711
7691,1.711
7692,1.711
7693,1.711
7694,1.711
7695,1.714
7696,1.722
7697,1.722
7698,1.725
7699,1.729
7700,1.732
7701,1.736
7702,1.743
7703,1.751
7704,1.754
7705,1.761
7706,1.761
7707,1.761
7708,1.754
7709,1.754
7710,1.751
7711,1.751
7712,1.754
7713,1.758
7714,1.765
7715,1.769
7716,1.769
7717,1.776
7718,1.776
7719,1.783
7720,1.787
7721,1.79
7722,1.794
7723,1.798
7724,1.801
7725,1.801
7726,1.805
7727,1.808
7728,1.808
7729,1.805
7730,1.805
7731,1.808
7732,1.812
7733,1.819
7734,1.823
7735,1.826
7736,1.83
7737,1.837
7738,1.845
7739,1.855
7740,1.859
7741,1.866
7742,1.874
7743,1.877
7744,1.877
7745,1.881
7746,1.881
7747,1.881
7748,1.881
7749,1.884
7750,1.888
7751,1.892
7752,1.895
7753,1.892
7754,1.892
7755,1.892
7756,1.892
7757,1.892
7758,1.888
7759,1.888
7760,1.884
7761,1.884
7762,1.881
7763,1.877
7764,1.874
7765,1.87
7766,1.866
7767,1.859
7768,1.855
7769,1.848
7770,1.845
7771,1.841
7772,1.834
7773,1.823
7774,1.812
7775,1.801
7776,1.79
7777,1.776
7778,1.761
7779,1.747
7780,1.736
7781,1.725
7782,1.722
7783,1.711
7784,1.707
7785,1.704
7786,1.7
7787,1.696
7788,1.689
7789,1.685
7790,1.682
7791,1.682
7792,1.682
7793,1.682
7794,1.678
7795,1.675
7796,1.675
7797,1.675
7798,1.671
7799,1.667
7800,1.664
7801,1.66
7802,1.657
7803,1.657
7804,1.653
7805,1.649
7806,1.649
7807,1.649
7808,1.657
7809,1.664
7810,1.671
7811,1.678
7812,1.685
7813,1.689
7814,1.689
7815,1.693
7816,1.693
7817,1.689
7818,1.693
7819,1.693
7820,1.696
7821,1.693
7822,1.693
7823,1.693
7824,1.689
7825,1.689
7826,1.685
7827,1.685
7828,1.689
7829,1.693
7830,1.693
7831,1.696
7832,1.693
7833,1.693
7834,1.693
7835,1.693
7836,1.693
7837,1.685
7838,1.685
7839,1.689
7840,1.693
7841,1.7
7842,1.707
7843,1.711
7844,1.711
7845,1.714
7846,1.714
7847,1.718
7848,1.718
7849,1.718
7850,1.722
7851,1.718
7852,1.718
7853,1.714
7854,1.711
7855,1.707
7856,1.707
7857,1.704
7858,1.704
7859,1.707
7860,1.711
7861,1.714
7862,1.718
7863,1.718
7864,1.718
7865,1.718
7866,1.722
7867,1.729
7868,1.732
7869,1.736
7870,1.74
7871,1.74
7872,1.74
7873,1.736
7874,1.732
7875,1.732
7876,1.732
7877,1.74
7878,1.743
7879,1.747
7880,1.754
7881,1.754
7882,1.758
7883,1.761
7884,1.761
7885,1.761
7886,1.761
7887,1.761
7888,1.765
7889,1.765
7890,1.765
7891,1.758
7892,1.751
7893,1.747
7894,1.743
7895,1.743
7896,1.747
7897,1.751
7898,1.754
7899,1.758
7900,1.761
7901,1.761
7902,1.754
7903,1.751
7904,1.747
7905,1.751
7906,1.751
7907,1.751
7908,1.754
7909,1.758
7910,1.765
7911,1.772
7912,1.779
7913,1.783
7914,1.783
7915,1.783
7916,1.783
7917,1.783
7918,1.787
7919,1.787
7920,1.787
7921,1.783
7922,1.783
7923,1.783
7924,1.779
7925,1.779
7926,1.783
7927,1.783
7928,1.779
7929,1.779
7930,1.779
7931,1.776
7932,1.772
7933,1.772
7934,1.779
7935,1.779
7936,1.787
7937,1.794
7938,1.801
7939,1.805
7940,1.812
7941,1.816
7942,1.816
7943,1.816
7944,1.819
7945,1.819
7946,1.819
7947,1.823
7948,1.826
7949,1.826
7950,1.826
7951,1.826
7952,1.826
7953,1.826
7954,1.826
7955,1.826
7956,1.823
7957,1.816
7958,1.812
7959,1.808
7960,1.805
7961,1.805
7962,1.808
7963,1.808
7964,1.808
7965,1.808
7966,1.812
7967,1.808
7968,1.808
7969,1.808
7970,1.808
7971,1.808
7972,1.808
7973,1.808
7974,1.812
7975,1.819
7976,1.823
7977,1.826
7978,1.826
7979,1.823
7980,1.819
7981,1.812
7982,1.812
7983,1.808
7984,1.808
7985,1.812
7986,1.816
7987,1.819
7988,1.823
7989,1.819
7990,1.816
7991,1.819
7992,1.823
7993,1.826
7994,1.83
7995,1.834
7996,1.834
7997,1.83
7998,1.83
7999,1.83
8000,1.834
8001,1.837
8002,1.837
8003,1.837
8004,1.837
8005,1.837
8006,1.841
8007,1.845
8008,1.852
8009,1.859
8010,1.863
8011,1.863
8012,1.859
8013,1.859
8014,1.859
8015,1.863
8016,1.866
8017,1.866
8018,1.866
8019,1.866
8020,1.87
8021,1.87
8022,1.87
8023,1.866
8024,1.863
8025,1.859
8026,1.855
8027,1.848
8028,1.845
8029,1.841
8030,1.841
8031,1.837
8032,1.834
8033,1.83
8034,1.826
8035,1.826
8036,1.826
8037,1.826
8038,1.83
8039,1.834
8040,1.841
8041,1.848
8042,1.859
8043,1.863
8044,1.874
8045,1.877
8046,1.884
8047,1.888
8048,1.892
8049,1.895
8050,1.899
8051,1.906
8052,1.913
8053,1.917
8054,1.921
8055,1.917
8056,1.917
8057,1.91
8058,1.906
8059,1.902
8060,1.899
8061,1.895
8062,1.895
8063,1.899
8064,1.899
8065,1.899
8066,1.895
8067,1.895
8068,1.892
8069,1.892
8070,1.892
8071,1.888
8072,1.888
8073,1.888
8074,1.888
8075,1.874
8076,1.866
8077,1.866
8078,1.87
8079,1.87
8080,1.87
8081,1.87
8082,1.87
8083,1.87
8084,1.87
8085,1.874
8086,1.87
8087,1.87
8088,1.87
8089,1.87
8090,1.866
8091,1.866
8092,1.863
8093,1.863
8094,1.866
8095,1.866
8096,1.874
8097,1.87
8098,1.87
8099,1.874
8100,1.874
8101,1.87
8102,1.866
8103,1.855
8104,1.845
8105,1.83
8106,1.819
8107,1.801
8108,1.776
8109,1.758
8110,1.74
8111,1.732
8112,1.736
8113,1.761
8114,1.819
8115,1.928
8116,2.08
8117,2.268
8118,2.452
8119,2.615
8120,2.76
8121,2.861
8122,2.922
8123,2.94
8124,2.919
8125,2.85
8126,2.738
8127,2.586
8128,2.416
8129,2.235
8130,2.076
8131,1.949
8132,1.863
8133,1.819
8134,1.812
8135,1.826
8136,1.852
8137,1.877
8138,1.895
8139,1.902
8140,1.902
8141,1.892
8142,1.877
8143,1.855
8144,1.83
8145,1.808
8146,1.79
8147,1.776
8148,1.772
8149,1.769
8150,1.772
8151,1.769
8152,1.772
8153,1.772
8154,1.772
8155,1.776
8156,1.779
8157,1.779
8158,1.779
8159,1.776
8160,1.779
8161,1.779
8162,1.783
8163,1.783
8164,1.783
8165,1.783
8166,1.783
8167,1.783
8168,1.787
8169,1.783
8170,1.779
8171,1.779
8172,1.779
8173,1.779
8174,1.783
8175,1.787
8176,1.79
8177,1.79
8178,1.79
8179,1.79
8180,1.79
8181,1.79
8182,1.794
8183,1.79
8184,1.794
8185,1.794
8186,1.798
8187,1.801
8188,1.801
8189,1.801
8190,1.801
8191,1.798
8192,1.79
8193,1.79
8194,1.79
8195,1.79
8196,1.794
8197,1.801
8198,1.805
8199,1.805
8200,1.805
8201,1.805
8202,1.805
8203,1.808
8204,1.812
8205,1.812
8206,1.812
8207,1.816
8208,1.823
8209,1.83
8210,1.837
8211,1.848
8212,1.855
8213,1.863
8214,1.863
8215,1.866
8216,1.866
8217,1.866
8218,1.866
8219,1.866
8220,1.866
8221,1.863
8222,1.866
8223,1.866
8224,1.874
8225,1.877
8226,1.881
8227,1.884
8228,1.884
8229,1.884
8230,1.884
8231,1.888
8232,1.895
8233,1.902
8234,1.91
8235,1.917
8236,1.924
8237,1.924
8238,1.928
8239,1.928
8240,1.931
8241,1.939
8242,1.942
8243,1.946
8244,1.949
8245,1.953
8246,1.957
8247,1.96
8248,1.96
8249,1.96
8250,1.96
8251,1.96
8252,1.968
8253,1.971
8254,1.975
8255,1.975
8256,1.978
8257,1.982
8258,1.982
8259,1.975
8260,1.968
8261,1.964
8262,1.96
8263,1.957
8264,1.953
8265,1.946
8266,1.939
8267,1.931
8268,1.913
8269,1.906
8270,1.895
8271,1.892
8272,1.888
8273,1.884
8274,1.877
8275,1.87
8276,1.863
8277,1.852
8278,1.837
8279,1.819
8280,1.808
8281,1.794
8282,1.783
8283,1.776
8284,1.765
8285,1.754
8286,1.743
8287,1.729
8288,1.718
8289,1.711
8290,1.704
8291,1.693
8292,1.682
8293,1.678
8294,1.675
8295,1.671
8296,1.667
8297,1.667
8298,1.667
8299,1.675
8300,1.678
8301,1.685
8302,1.685
8303,1.689
8304,1.693
8305,1.693
8306,1.693
8307,1.693
8308,1.696
8309,1.7
8310,1.7
8311,1.7
8312,1.7
8313,1.693
8314,1.693
8315,1.689
8316,1.693
8317,1.696
8318,1.696
8319,1.696
8320,1.693
8321,1.693
8322,1.693
8323,1.696
8324,1.693
8325,1.689
8326,1.693
8327,1.696
8328,1.7
8329,1.704
8330,1.707
8331,1.707
8332,1.704
8333,1.704
8334,1.704
8335,1.696
8336,1.693
8337,1.689
8338,1.689
8339,1.685
8340,1.685
8341,1.685
8342,1.685
8343,1.685
8344,1.685
8345,1.685
8346,1.685
8347,1.685
8348,1.685
8349,1.689
8350,1.7
8351,1.704
8352,1.704
8353,1.704
8354,1.7
8355,1.696
8356,1.693
8357,1.689
8358,1.689
8359,1.693
8360,1.696
8361,1.696
8362,1.7
8363,1.696
8364,1.689
8365,1.682
8366,1.678
8367,1.675
8368,1.675
8369,1.678
8370,1.682
8371,1.685
8372,1.685
8373,1.682
8374,1.678
8375,1.675
8376,1.671
8377,1.671
8378,1.664
8379,1.66
8380,1.657
8381,1.653
8382,1.653
8383,1.66
8384,1.66
8385,1.664
8386,1.664
8387,1.667
8388,1.671
8389,1.671
8390,1.671
8391,1.667
8392,1.667
8393,1.667
8394,1.664
8395,1.664
8396,1.66
8397,1.66
8398,1.664
8399,1.667
8400,1.667
8401,1.671
8402,1.671
8403,1.671
8404,1.671
8405,1.671
8406,1.671
8407,1.671
8408,1.671
8409,1.678
8410,1.678
8411,1.678
8412,1.682
8413,1.682
8414,1.682
8415,1.678
8416,1.678
8417,1.678
8418,1.678
8419,1.678
8420,1.678
8421,1.671
8422,1.667
8423,1.66
8424,1.66
8425,1.657
8426,1.657
8427,1.66
8428,1.66
8429,1.657
8430,1.653
8431,1.653
8432,1.649
8433,1.649
8434,1.649
8435,1.653
8436,1.653
8437,1.657
8438,1.657
8439,1.653
8440,1.649
8441,1.646
8442,1.646
8443,1.646
8444,1.646
8445,1.646
8446,1.646
8447,1.642
8448,1.638
8449,1.638
8450,1.635
8451,1.635
8452,1.638
8453,1.642
8454,1.646
8455,1.646
8456,1.642
8457,1.638
8458,1.631
8459,1.628
8460,1.624
8461,1.62
8462,1.617
8463,1.62
8464,1.624
8465,1.62
8466,1.62
8467,1.62
8468,1.617
8469,1.613
8470,1.613
8471,1.613
8472,1.613
8473,1.613
8474,1.613
8475,1.613
8476,1.609
8477,1.606
8478,1.602
8479,1.599
8480,1.599
8481,1.602
8482,1.602
8483,1.602
8484,1.606
8485,1.606
8486,1.602
8487,1.599
8488,1.595
8489,1.591
8490,1.584
8491,1.581
8492,1.577
8493,1.577
8494,1.577
8495,1.577
8496,1.577
8497,1.573
8498,1.573
8499,1.573
8500,1.573
8501,1.573
8502,1.573
8503,1.573
8504,1.573
8505,1.577
8506,1.581
8507,1.584
8508,1.584
8509,1.584
8510,1.584
8511,1.581
8512,1.584
8513,1.588
8514,1.591
8515,1.591
8516,1.591
8517,1.588
8518,1.588
8519,1.588
8520,1.588
8521,1.584
8522,1.581
8523,1.573
8524,1.573
8525,1.57
8526,1.57
8527,1.57
8528,1.566
8529,1.562
8530,1.562
8531,1.559
8532,1.555
8533,1.552
8534,1.555
8535,1.559
8536,1.559
8537,1.559
8538,1.559
8539,1.562
8540,1.559
8541,1.555
8542,1.552
8543,1.552
8544,1.548
8545,1.552
8546,1.552
8547,1.548
8548,1.548
8549,1.544
8550,1.548
8551,1.544
8552,1.541
8553,1.541
8554,1.541
8555,1.537
8556,1.534
8557,1.534
8558,1.534
8559,1.534
8560,1.53
8561,1.53
8562,1.526
8563,1.523
8564,1.519
8565,1.512
8566,1.501
8567,1.49
8568,1.479
8569,1.461
8570,1.436
8571,1.411
8572,1.392
8573,1.374
8574,1.378
8575,1.407
8576,1.472
8577,1.584
8578,1.74
8579,1.924
8580,2.112
8581,2.286
8582,2.438
8583,2.553
8584,2.619
8585,2.644
8586,2.633
8587,2.572
8588,2.467
8589,2.326
8590,2.163
8591,1.993
8592,1.837
8593,1.707
8594,1.609
8595,1.552
8596,1.53
8597,1.526
8598,1.534
8599,1.552
8600,1.57
8601,1.577
8602,1.573
8603,1.566
8604,1.555
8605,1.534
8606,1.515
8607,1.497
8608,1.483
8609,1.476
8610,1.465
8611,1.461
8612,1.458
8613,1.454
8614,1.45
8615,1.454
8616,1.454
8617,1.454
8618,1.461
8619,1.461
8620,1.465
8621,1.465
8622,1.465
8623,1.461
8624,1.458
8625,1.454
8626,1.458
8627,1.458
8628,1.461
8629,1.465
8630,1.465
8631,1.465
8632,1.461
8633,1.458
8634,1.45
8635,1.45
8636,1.454
8637,1.458
8638,1.461
8639,1.465
8640,1.468
8641,1.472
8642,1.476
8643,1.479
8644,1.479
8645,1.487
8646,1.487
8647,1.494
8648,1.494
8649,1.494
8650,1.497
8651,1.494
8652,1.487
8653,1.483
8654,1.483
8655,1.487
8656,1.49
8657,1.501
8658,1.512
8659,1.519
8660,1.526
8661,1.526
8662,1.526
8663,1.523
8664,1.523
8665,1.519
8666,1.512
8667,1.512
8668,1.512
8669,1.512
8670,1.515
8671,1.519
8672,1.526
8673,1.537
8674,1.544
8675,1.552
8676,1.555
8677,1.559
8678,1.559
8679,1.562
8680,1.566
8681,1.566
8682,1.566
8683,1.566
8684,1.57
8685,1.573
8686,1.581
8687,1.591
8688,1.595
8689,1.602
8690,1.606
8691,1.613
8692,1.617
8693,1.624
8694,1.628
8695,1.631
8696,1.635
8697,1.638
8698,1.646
8699,1.649
8700,1.657
8701,1.66
8702,1.667
8703,1.671
8704,1.678
8705,1.685
8706,1.696
8707,1.707
8708,1.711
8709,1.714
8710,1.714
8711,1.714
8712,1.714
8713,1.707
8714,1.704
8715,1.707
8716,1.707
8717,1.707
8718,1.707
8719,1.707
8720,1.707
8721,1.711
8722,1.711
8723,1.714
8724,1.707
8725,1.704
8726,1.704
8727,1.7
8728,1.696
8729,1.689
8730,1.682
8731,1.671
8732,1.657
8733,1.642
8734,1.628
8735,1.609
8736,1.591
8737,1.584
8738,1.573
8739,1.566
8740,1.559
8741,1.552
8742,1.548
8743,1.544
8744,1.537
8745,1.53
8746,1.523
8747,1.515
8748,1.512
8749,1.505
8750,1.501
8751,1.497
8752,1.494
8753,1.494
8754,1.494
8755,1.497
8756,1.494
8757,1.494
8758,1.494
8759,1.494
8760,1.49
8761,1.49
8762,1.49
8763,1.49
8764,1.49
8765,1.49
8766,1.494
8767,1.49
8768,1.49
8769,1.494
8770,1.494
8771,1.494
8772,1.501
8773,1.505
8774,1.508
8775,1.515
8776,1.523
8777,1.53
8778,1.534
8779,1.541
8780,1.544
8781,1.544
8782,1.548
8783,1.548
8784,1.544
8785,1.548
8786,1.555
8787,1.559
8788,1.562
8789,1.562
8790,1.57
8791,1.573
8792,1.577
8793,1.573
8794,1.566
8795,1.566
8796,1.562
8797,1.566
8798,1.57
8799,1.573
8800,1.573
8801,1.577
8802,1.581
8803,1.584
8804,1.584
8805,1.584
8806,1.588
8807,1.595
8808,1.599
8809,1.606
8810,1.613
8811,1.617
8812,1.624
8813,1.624
8814,1.62
8815,1.62
8816,1.617
8817,1.617
8818,1.617
8819,1.617
8820,1.62
8821,1.628
8822,1.635
8823,1.638
8824,1.642
8825,1.646
8826,1.649
8827,1.653
8828,1.657
8829,1.657
8830,1.657
8831,1.664
8832,1.667
8833,1.671
8834,1.675
8835,1.678
8836,1.682
8837,1.685
8838,1.689
8839,1.693
8840,1.693
8841,1.696
8842,1.7
8843,1.696
8844,1.7
8845,1.7
8846,1.707
8847,1.711
8848,1.718
8849,1.722
8850,1.725
8851,1.729
8852,1.732
8853,1.736
8854,1.732
8855,1.736
8856,1.736
8857,1.74
8858,1.74
8859,1.743
8860,1.74
8861,1.74
8862,1.74
8863,1.743
8864,1.751
8865,1.754
8866,1.761
8867,1.769
8868,1.772
8869,1.772
8870,1.772
8871,1.769
8872,1.765
8873,1.765
8874,1.765
8875,1.769
8876,1.772
8877,1.776
8878,1.783
8879,1.787
8880,1.79
8881,1.798
8882,1.801
8883,1.805
8884,1.805
8885,1.812
8886,1.812
8887,1.816
8888,1.816
8889,1.819
8890,1.819
8891,1.819
8892,1.816
8893,1.816
8894,1.816
8895,1.819
8896,1.826
8897,1.823
8898,1.83
8899,1.834
8900,1.837
8901,1.837
8902,1.837
8903,1.837
8904,1.834
8905,1.834
8906,1.837
8907,1.841
8908,1.841
8909,1.845
8910,1.848
8911,1.848
8912,1.855
8913,1.859
8914,1.863
8915,1.87
8916,1.874
8917,1.877
8918,1.877
8919,1.874
8920,1.87
8921,1.866
8922,1.863
8923,1.863
8924,1.863
8925,1.866
8926,1.87
8927,1.87
8928,1.877
8929,1.877
8930,1.881
8931,1.881
8932,1.888
8933,1.892
8934,1.892
8935,1.895
8936,1.899
8937,1.902
8938,1.902
8939,1.906
8940,1.902
8941,1.899
8942,1.899
8943,1.902
8944,1.906
8945,1.91
8946,1.91
8947,1.913
8948,1.91
8949,1.91
8950,1.91
8951,1.906
8952,1.906
8953,1.902
8954,1.899
8955,1.899
8956,1.906
8957,1.91
8958,1.91
8959,1.917
8960,1.917
8961,1.917
8962,1.917
8963,1.917
8964,1.917
8965,1.917
8966,1.917
8967,1.917
8968,1.917
8969,1.913
8970,1.91
8971,1.906
8972,1.91
8973,1.906
8974,1.906
8975,1.906
8976,1.902
8977,1.899
8978,1.895
8979,1.895
8980,1.902
8981,1.906
8982,1.913
8983,1.921
8984,1.928
8985,1.935
8986,1.939
8987,1.946
8988,1.953
8989,1.968
8990,1.978
8991,1.986
8992,1.993
8993,2.0
8994,2.0
8995,2.004
8996,2.004
8997,2.0
8998,2.0
8999,1.993
9000,1.993
9001,2.0
9002,2.004
9003,2.011
9004,2.018
9005,2.015
9006,2.015
9007,2.011
9008,2.011
9009,2.011
9010,2.011
9011,2.015
9012,2.018
9013,2.025
9014,2.025
9015,2.029
9016,2.029
9017,2.029
9018,2.029
9019,2.029
9020,2.029
9021,2.029
9022,2.033
9023,2.04
9024,2.043
9025,2.047
9026,2.051
9027,2.051
9028,2.051
9029,2.051
9030,2.054
9031,2.054
9032,2.054
9033,2.054
9034,2.054
9035,2.058
9036,2.058
9037,2.054
9038,2.054
9039,2.054
9040,2.058
9041,2.062
9042,2.065
9043,2.069
9044,2.069
9045,2.069
9046,2.062
9047,2.054
9048,2.043
9049,2.033
9050,2.025
9051,2.022
9052,2.011
9053,2.0
9054,1.989
9055,1.986
9056,1.986
9057,2.004
9058,2.062
9059,2.156
9060,2.297
9061,2.474
9062,2.673
9063,2.857
9064,3.02
9065,3.147
9066,3.23
9067,3.273
9068,3.277
9069,3.226
9070,3.125
9071,2.998
9072,2.85
9073,2.691
9074,2.535
9075,2.394
9076,2.282
9077,2.206
9078,2.166
9079,2.152
9080,2.159
9081,2.17
9082,2.185
9083,2.188
9084,2.188
9085,2.181
9086,2.166
9087,2.152
9088,2.138
9089,2.123
9090,2.109
9091,2.105
9092,2.101
9093,2.098
9094,2.094
9095,2.091
9096,2.087
9097,2.083
9098,2.08
9099,2.076
9100,2.072
9101,2.072
9102,2.069
9103,2.072
9104,2.08
9105,2.091
9106,2.098
9107,2.109
9108,2.119
9109,2.13
9110,2.138
9111,2.141
9112,2.141
9113,2.13
9114,2.123
9115,2.116
9116,2.109
9117,2.105
9118,2.109
9119,2.105
9120,2.109
9121,2.105
9122,2.105
9123,2.109
9124,2.119
9125,2.134
9126,2.148
9127,2.159
9128,2.17
9129,2.174
9130,2.166
9131,2.159
9132,2.156
9133,2.152
9134,2.152
9135,2.148
9136,2.152
9137,2.163
9138,2.17
9139,2.177
9140,2.185
9141,2.188
9142,2.188
9143,2.192
9144,2.199
9145,2.199
9146,2.199
9147,2.206
9148,2.213
9149,2.221
9150,2.221
9151,2.213
9152,2.206
9153,2.203
9154,2.203
9155,2.213
9156,2.228
9157,2.246
9158,2.261
9159,2.271
9160,2.275
9161,2.279
9162,2.279
9163,2.279
9164,2.279
9165,2.286
9166,2.297
9167,2.297
9168,2.308
9169,2.315
9170,2.318
9171,2.322
9172,2.318
9173,2.315
9174,2.315
9175,2.326
9176,2.336
9177,2.347
9178,2.355
9179,2.362
9180,2.365
9181,2.369
9182,2.369
9183,2.373
9184,2.38
9185,2.387
9186,2.391
9187,2.402
9188,2.412
9189,2.416
9190,2.42
9191,2.416
9192,2.409
9193,2.409
9194,2.416
9195,2.427
9196,2.434
9197,2.438
9198,2.434
9199,2.43
9200,2.423
9201,2.423
9202,2.423
9203,2.423
9204,2.423
9205,2.42
9206,2.42
9207,2.423
9208,2.423
9209,2.423
9210,2.416
9211,2.412
9212,2.405
9213,2.394
9214,2.383
9215,2.376
9216,2.362
9217,2.347
9218,2.329
9219,2.304
9220,2.289
9221,2.271
9222,2.261
9223,2.257
9224,2.257
9225,2.25
9226,2.242
9227,2.239
9228,2.239
9229,2.242
9230,2.246
9231,2.246
9232,2.235
9233,2.228
9234,2.217
9235,2.206
9236,2.192
9237,2.185
9238,2.177
9239,2.174
9240,2.177
9241,2.181
9242,2.188
9243,2.192
9244,2.195
9245,2.199
9246,2.195
9247,2.192
9248,2.181
9249,2.174
9250,2.17
9251,2.17
9252,2.174
9253,2.174
9254,2.185
9255,2.188
9256,2.195
9257,2.199
9258,2.199
9259,2.199
9260,2.192
9261,2.185
9262,2.174
9263,2.17
9264,2.166
9265,2.166
9266,2.174
9267,2.181
9268,2.185
9269,2.188
9270,2.192
9271,2.185
9272,2.185
9273,2.177
9274,2.174
9275,2.17
9276,2.17
9277,2.17
9278,2.17
9279,2.177
9280,2.181
9281,2.188
9282,2.188
9283,2.185
9284,2.181
9285,2.181
9286,2.181
9287,2.181
9288,2.177
9289,2.177
9290,2.174
9291,2.177
9292,2.185
9293,2.181
9294,2.185
9295,2.188
9296,2.192
9297,2.185
9298,2.185
9299,2.185
9300,2.185
9301,2.185
9302,2.185
9303,2.185
9304,2.188
9305,2.195
9306,2.195
9307,2.199
9308,2.199
9309,2.199
9310,2.199
9311,2.192
9312,2.188
9313,2.181
9314,2.181
9315,2.181
9316,2.181
9317,2.188
9318,2.185
9319,2.177
9320,2.17
9321,2.17
9322,2.174
9323,2.174
9324,2.174
9325,2.174
9326,2.166
9327,2.166
9328,2.17
9329,2.166
9330,2.174
9331,2.188
9332,2.195
9333,2.195
9334,2.185
9335,2.177
9336,2.17
9337,2.159
9338,2.148
9339,2.148
9340,2.156
9341,2.17
9342,2.188
9343,2.206
9344,2.213
9345,2.217
9346,2.21
9347,2.195
9348,2.185
9349,2.174
9350,2.163
9351,2.152
9352,2.152
9353,2.156
9354,2.156
9355,2.163
9356,2.185
9357,2.195
9358,2.195
9359,2.192
9360,2.185
9361,2.17
9362,2.156
9363,2.141
9364,2.13
9365,2.13
9366,2.138
9367,2.145
9368,2.152
9369,2.156
9370,2.163
9371,2.177
9372,2.192
9373,2.195
9374,2.192
9375,2.188
9376,2.181
9377,2.17
9378,2.159
9379,2.152
9380,2.148
9381,2.148
9382,2.156
9383,2.159
9384,2.159
9385,2.159
9386,2.163
9387,2.163
9388,2.159
9389,2.159
9390,2.159
9391,2.163
9392,2.166
9393,2.174
9394,2.166
9395,2.166
9396,2.166
9397,2.159
9398,2.156
9399,2.152
9400,2.156
9401,2.159
9402,2.163
9403,2.166
9404,2.174
9405,2.174
9406,2.17
9407,2.156
9408,2.145
9409,2.138
9410,2.138
9411,2.134
9412,2.13
9413,2.134
9414,2.145
9415,2.152
9416,2.152
9417,2.152
9418,2.152
9419,2.152
9420,2.138
9421,2.127
9422,2.116
9423,2.116
9424,2.116
9425,2.116
9426,2.116
9427,2.119
9428,2.13
9429,2.134
9430,2.134
9431,2.134
9432,2.134
9433,2.13
9434,2.123
9435,2.119
9436,2.116
9437,2.109
9438,2.101
9439,2.098
9440,2.094
9441,2.094
9442,2.094
9443,2.091
9444,2.083
9445,2.08
9446,2.076
9447,2.083
9448,2.08
9449,2.087
9450,2.098
9451,2.109
9452,2.116
9453,2.112
9454,2.109
9455,2.098
9456,2.087
9457,2.076
9458,2.076
9459,2.069
9460,2.072
9461,2.076
9462,2.08
9463,2.08
9464,2.08
9465,2.08
9466,2.08
9467,2.076
9468,2.069
9469,2.058
9470,2.047
9471,2.043
9472,2.04
9473,2.04
9474,2.047
9475,2.051
9476,2.051
9477,2.04
9478,2.04
9479,2.051
9480,2.054
9481,2.062
9482,2.062
9483,2.051
9484,2.036
9485,2.029
9486,2.025
9487,2.025
9488,2.025
9489,2.025
9490,2.025
9491,2.025
9492,2.029
9493,2.029
9494,2.022
9495,2.022
9496,2.025
9497,2.033
9498,2.043
9499,2.054
9500,2.065
9501,2.072
9502,2.083
9503,2.094
9504,2.098
9505,2.101
9506,2.105
9507,2.105
9508,2.101
9509,2.101
9510,2.094
9511,2.087
9512,2.087
9513,2.083
9514,2.08
9515,2.08
9516,2.076
9517,2.072
9518,2.069
9519,2.065
9520,2.062
9521,2.062
9522,2.058
9523,2.062
9524,2.054
9525,2.051
9526,2.047
9527,2.043
9528,2.036
9529,2.033
9530,2.033
9531,2.029
9532,2.025
9533,2.029
9534,2.029
9535,2.029
9536,2.036
9537,2.036
9538,2.033
9539,2.022
9540,2.018
9541,2.011
9542,2.007
9543,2.007
9544,2.004
9545,2.0
9546,1.996
9547,1.996
9548,1.993
9549,1.986
9550,1.989
9551,1.986
9552,1.986
9553,1.982
9554,1.978
9555,1.978
9556,1.971
9557,1.968
9558,1.96
9559,1.949
9560,1.939
9561,1.928
9562,1.917
9563,1.902
9564,1.888
9565,1.874
9566,1.87
9567,1.87
9568,1.888
9569,1.931
9570,2.004
9571,2.101
9572,2.224
9573,2.369
9574,2.499
9575,2.619
9576,2.727
9577,2.81
9578,2.854
9579,2.865
9580,2.839
9581,2.77
9582,2.673
9583,2.553
9584,2.423
9585,2.3
9586,2.192
9587,2.109
9588,2.043
9589,2.0
9590,1.975
9591,1.96
9592,1.953
9593,1.953
9594,1.949
9595,1.931
9596,1.913
9597,1.888
9598,1.87
9599,1.852
9600,1.837
9601,1.823
9602,1.819
9603,1.816
9604,1.819
9605,1.819
9606,1.816
9607,1.816
9608,1.816
9609,1.816
9610,1.808
9611,1.798
9612,1.783
9613,1.776
9614,1.765
9615,1.765
9616,1.761
9617,1.765
9618,1.772
9619,1.783
9620,1.79
9621,1.79
9622,1.787
9623,1.787
9624,1.787
9625,1.787
9626,1.79
9627,1.794
9628,1.801
9629,1.808
9630,1.808
9631,1.812
9632,1.805
9633,1.798
9634,1.783
9635,1.776
9636,1.769
9637,1.769
9638,1.772
9639,1.772
9640,1.772
9641,1.776
9642,1.776
9643,1.779
9644,1.779
9645,1.776
9646,1.769
9647,1.758
9648,1.754
9649,1.751
9650,1.754
9651,1.758
9652,1.765
9653,1.765
9654,1.765
9655,1.765
9656,1.765
9657,1.761
9658,1.758
9659,1.754
9660,1.751
9661,1.751
9662,1.751
9663,1.754
9664,1.754
9665,1.761
9666,1.769
9667,1.776
9668,1.779
9669,1.779
9670,1.776
9671,1.779
9672,1.783
9673,1.783
9674,1.79
9675,1.794
9676,1.798
9677,1.794
9678,1.79
9679,1.787
9680,1.79
9681,1.801
9682,1.816
9683,1.826
9684,1.837
9685,1.845
9686,1.852
9687,1.852
9688,1.845
9689,1.841
9690,1.841
9691,1.841
9692,1.848
9693,1.852
9694,1.859
9695,1.866
9696,1.87
9697,1.87
9698,1.874
9699,1.877
9700,1.874
9701,1.874
9702,1.874
9703,1.874
9704,1.87
9705,1.866
9706,1.866
9707,1.859
9708,1.859
9709,1.855
9710,1.852
9711,1.855
9712,1.859
9713,1.866
9714,1.874
9715,1.877
9716,1.874
9717,1.87
9718,1.863
9719,1.855
9720,1.845
9721,1.834
9722,1.823
9723,1.812
9724,1.801
9725,1.794
9726,1.783
9727,1.783
9728,1.787
9729,1.787
9730,1.787
9731,1.783
9732,1.776
9733,1.769
9734,1.758
9735,1.74
9736,1.725
9737,1.714
9738,1.707
9739,1.7
9740,1.693
9741,1.689
9742,1.685
9743,1.685
9744,1.682
9745,1.675
9746,1.664
9747,1.657
9748,1.646
9749,1.642
9750,1.642
9751,1.638
9752,1.642
9753,1.646
9754,1.653
9755,1.66
9756,1.667
9757,1.675
9758,1.678
9759,1.675
9760,1.682
9761,1.682
9762,1.678
9763,1.675
9764,1.667
9765,1.664
9766,1.66
9767,1.657
9768,1.66
9769,1.664
9770,1.664
9771,1.671
9772,1.675
9773,1.682
9774,1.685
9775,1.693
9776,1.696
9777,1.7
9778,1.707
9779,1.711
9780,1.707
9781,1.7
9782,1.693
9783,1.689
9784,1.693
9785,1.693
9786,1.7
9787,1.707
9788,1.711
9789,1.711
9790,1.707
9791,1.704
9792,1.7
9793,1.696
9794,1.693
9795,1.689
9796,1.685
9797,1.678
9798,1.675
9799,1.667
9800,1.667
9801,1.671
9802,1.675
9803,1.678
9804,1.678
9805,1.682
9806,1.685
9807,1.689
9808,1.689
9809,1.693
9810,1.693
9811,1.685
9812,1.675
9813,1.675
9814,1.671
9815,1.667
9816,1.66
9817,1.66
9818,1.667
9819,1.675
9820,1.678
9821,1.685
9822,1.689
9823,1.693
9824,1.696
9825,1.707
9826,1.707
9827,1.711
9828,1.707
9829,1.704
9830,1.7
9831,1.696
9832,1.693
9833,1.693
9834,1.689
9835,1.685
9836,1.685
9837,1.689
9838,1.696
9839,1.707
9840,1.714
9841,1.722
9842,1.725
9843,1.718
9844,1.714
9845,1.707
9846,1.704
9847,1.7
9848,1.696
9849,1.696
9850,1.696
9851,1.7
9852,1.704
9853,1.707
9854,1.714
9855,1.722
9856,1.725
9857,1.732
9858,1.74
9859,1.743
9860,1.747
9861,1.751
9862,1.758
9863,1.761
9864,1.765
9865,1.765
9866,1.761
9867,1.761
9868,1.761
9869,1.761
9870,1.758
9871,1.751
9872,1.74
9873,1.736
9874,1.736
9875,1.74
9876,1.736
9877,1.736
9878,1.736
9879,1.74
9880,1.74
9881,1.74
9882,1.74
9883,1.743
9884,1.747
9885,1.747
9886,1.747
9887,1.747
9888,1.747
9889,1.743
9890,1.743
9891,1.743
9892,1.743
9893,1.74
9894,1.736
9895,1.729
9896,1.729
9897,1.732
9898,1.736
9899,1.74
9900,1.743
9901,1.747
9902,1.747
9903,1.754
9904,1.758
9905,1.761
9906,1.761
9907,1.761
9908,1.758
9909,1.758
9910,1.758
9911,1.754
9912,1.747
9913,1.74
9914,1.736
9915,1.736
9916,1.743
9917,1.747
9918,1.754
9919,1.761
9920,1.765
9921,1.765
9922,1.765
9923,1.769
9924,1.769
9925,1.772
9926,1.772
9927,1.772
9928,1.772
9929,1.776
9930,1.776
9931,1.772
9932,1.772
9933,1.769
9934,1.758
9935,1.747
9936,1.743
9937,1.743
9938,1.747
9939,1.751
9940,1.754
9941,1.761
9942,1.769
9943,1.772
9944,1.776
9945,1.776
9946,1.772
9947,1.769
9948,1.765
9949,1.758
9950,1.751
9951,1.747
9952,1.747
9953,1.743
9954,1.743
9955,1.754
9956,1.758
9957,1.761
9958,1.761
9959,1.769
9960,1.772
9961,1.772
9962,1.772
9963,1.776
9964,1.776
9965,1.779
9966,1.783
9967,1.783
9968,1.787
9969,1.79
9970,1.794
9971,1.798
9972,1.798
9973,1.794
9974,1.79
9975,1.783
9976,1.776
9977,1.776
9978,1.772
9979,1.776
9980,1.776
9981,1.772
9982,1.769
9983,1.765
9984,1.758
9985,1.754
9986,1.754
9987,1.758
9988,1.758
9989,1.754
9990,1.754
9991,1.761
9992,1.769
9993,1.776
9994,1.772
9995,1.772
9996,1.776
9997,1.776
9998,1.772
9999,1.758
10000,1.751
10001,1.754
10002,1.758
10003,1.765
10004,1.772
10005,1.783
10006,1.794
10007,1.805
10008,1.812
10009,1.819
10010,1.823
10011,1.834
10012,1.848
10013,1.855
10014,1.855
10015,1.855
10016,1.852
10017,1.848
10018,1.848
10019,1.841
10020,1.841
10021,1.841
10022,1.841
10023,1.837
10024,1.834
10025,1.826
10026,1.819
10027,1.816
10028,1.816
10029,1.819
10030,1.823
10031,1.834
10032,1.837
10033,1.841
10034,1.837
10035,1.834
10036,1.83
10037,1.826
10038,1.826
10039,1.826
10040,1.826
10041,1.826
10042,1.823
10043,1.819
10044,1.819
10045,1.819
10046,1.823
10047,1.826
10048,1.83
10049,1.834
10050,1.834
10051,1.834
10052,1.834
10053,1.826
10054,1.819
10055,1.808
10056,1.801
10057,1.794
10058,1.787
10059,1.787
10060,1.783
10061,1.783
10062,1.787
10063,1.79
10064,1.794
10065,1.805
10066,1.812
10067,1.819
10068,1.819
10069,1.816
10070,1.816
10071,1.808
10072,1.794
10073,1.779
10074,1.765
10075,1.751
10076,1.747
10077,1.754
10078,1.779
10079,1.834
10080,1.91
10081,2.018
10082,2.148
10083,2.282
10084,2.402
10085,2.514
10086,2.6
10087,2.662
10088,2.698
10089,2.695
10090,2.655
10091,2.582
10092,2.485
10093,2.38
10094,2.271
10095,2.166
10096,2.08
10097,2.011
10098,1.96
10099,1.928
10100,1.913
10101,1.906
10102,1.906
10103,1.899
10104,1.888
10105,1.874
10106,1.855
10107,1.837
10108,1.819
10109,1.805
10110,1.79
10111,1.776
10112,1.765
10113,1.761
10114,1.754
10115,1.754
10116,1.751
10117,1.754
10118,1.751
10119,1.751
10120,1.747
10121,1.747
10122,1.747
10123,1.747
10124,1.751
10125,1.758
10126,1.765
10127,1.769
10128,1.772
10129,1.769
10130,1.765
10131,1.761
10132,1.765
10133,1.769
10134,1.769
10135,1.769
10136,1.772
10137,1.772
10138,1.769
10139,1.769
10140,1.761
10141,1.758
10142,1.754
10143,1.751
10144,1.751
10145,1.754
10146,1.754
10147,1.754
10148,1.758
10149,1.765
10150,1.772
10151,1.779
10152,1.79
10153,1.801
10154,1.808
10155,1.808
10156,1.812
10157,1.812
10158,1.808
10159,1.805
10160,1.805
10161,1.801
10162,1.801
10163,1.805
10164,1.805
10165,1.808
10166,1.808
10167,1.812
10168,1.819
10169,1.823
10170,1.826
10171,1.83
10172,1.826
10173,1.823
10174,1.819
10175,1.816
10176,1.819
10177,1.816
10178,1.816
10179,1.812
10180,1.808
10181,1.805
10182,1.808
10183,1.812
10184,1.819
10185,1.83
10186,1.841
10187,1.852
10188,1.859
10189,1.859
10190,1.863
10191,1.866
10192,1.87
10193,1.874
10194,1.87
10195,1.874
10196,1.874
10197,1.87
10198,1.87
10199,1.874
10200,1.881
10201,1.892
10202,1.899
10203,1.902
10204,1.91
10205,1.91
10206,1.906
10207,1.906
10208,1.91
10209,1.913
10210,1.913
10211,1.917
10212,1.917
10213,1.924
10214,1.931
10215,1.946
10216,1.946
10217,1.946
10218,1.942
10219,1.939
10220,1.939
10221,1.946
10222,1.953
10223,1.96
10224,1.968
10225,1.975
10226,1.975
10227,1.982
10228,1.982
10229,1.982
10230,1.975
10231,1.971
10232,1.964
10233,1.953
10234,1.942
10235,1.931
10236,1.921
10237,1.906
10238,1.895
10239,1.881
10240,1.874
10241,1.866
10242,1.863
10243,1.855
10244,1.852
10245,1.845
10246,1.837
10247,1.834
10248,1.826
10249,1.816
10250,1.808
10251,1.798
10252,1.794
10253,1.783
10254,1.776
10255,1.772
10256,1.769
10257,1.765
10258,1.765
10259,1.765
10260,1.765
10261,1.765
10262,1.765
10263,1.765
10264,1.765
10265,1.765
10266,1.765
10267,1.765
10268,1.765
10269,1.765
10270,1.769
10271,1.769
10272,1.772
10273,1.769
10274,1.772
10275,1.776
10276,1.776
10277,1.776
10278,1.779
10279,1.79
10280,1.794
10281,1.794
10282,1.798
10283,1.801
10284,1.805
10285,1.805
10286,1.805
10287,1.805
10288,1.801
10289,1.801
10290,1.805
10291,1.801
10292,1.801
10293,1.805
10294,1.808
10295,1.808
10296,1.812
10297,1.812
10298,1.808
10299,1.812
10300,1.812
10301,1.816
10302,1.808
10303,1.805
10304,1.801
10305,1.794
10306,1.79
10307,1.787
10308,1.787
10309,1.79
10310,1.794
10311,1.794
10312,1.801
10313,1.801
10314,1.808
10315,1.816
10316,1.816
10317,1.819
10318,1.816
10319,1.812
10320,1.808
10321,1.805
10322,1.805
10323,1.805
10324,1.805
10325,1.805
10326,1.805
10327,1.808
10328,1.812
10329,1.812
10330,1.816
10331,1.816
10332,1.812
10333,1.812
10334,1.812
10335,1.816
10336,1.819
10337,1.826
10338,1.83
10339,1.837
10340,1.837
10341,1.834
10342,1.834
10343,1.826
10344,1.826
10345,1.819
10346,1.816
10347,1.816
10348,1.816
10349,1.812
10350,1.812
10351,1.812
10352,1.812
10353,1.816
10354,1.819
10355,1.823
10356,1.823
10357,1.823
10358,1.826
10359,1.826
10360,1.826
10361,1.834
10362,1.841
10363,1.841
10364,1.845
10365,1.841
10366,1.841
10367,1.841
10368,1.841
10369,1.848
10370,1.848
10371,1.845
10372,1.837
10373,1.834
10374,1.83
10375,1.826
10376,1.826
10377,1.834
10378,1.837
10379,1.837
10380,1.841
10381,1.837
10382,1.834
10383,1.834
10384,1.826
10385,1.823
10386,1.823
10387,1.823
10388,1.826
10389,1.819
10390,1.819
10391,1.816
10392,1.823
10393,1.83
10394,1.837
10395,1.845
10396,1.848
10397,1.848
10398,1.852
10399,1.848
10400,1.841
10401,1.841
10402,1.845
10403,1.852
10404,1.855
10405,1.855
10406,1.852
10407,1.845
10408,1.837
10409,1.83
10410,1.819
10411,1.812
10412,1.812
10413,1.816
10414,1.823
10415,1.823
10416,1.826
10417,1.823
10418,1.819
10419,1.816
10420,1.812
10421,1.808
10422,1.801
10423,1.798
10424,1.794
10425,1.787
10426,1.783
10427,1.783
10428,1.779
10429,1.779
10430,1.779
10431,1.787
10432,1.787
10433,1.794
10434,1.798
10435,1.798
10436,1.798
10437,1.798
10438,1.798
10439,1.798
10440,1.794
10441,1.79
10442,1.79
10443,1.787
10444,1.787
10445,1.787
10446,1.787
10447,1.787
10448,1.787
10449,1.787
10450,1.787
10451,1.79
10452,1.798
10453,1.798
10454,1.798
10455,1.798
10456,1.794
10457,1.79
10458,1.787
10459,1.787
10460,1.787
10461,1.787
10462,1.79
10463,1.794
10464,1.794
10465,1.79
10466,1.79
10467,1.79
10468,1.787
10469,1.783
10470,1.779
10471,1.776
10472,1.772
10473,1.772
10474,1.772
10475,1.772
10476,1.772
10477,1.772
10478,1.776
10479,1.779
10480,1.783
10481,1.787
10482,1.79
10483,1.794
10484,1.798
10485,1.801
10486,1.801
10487,1.805
10488,1.805
10489,1.805
10490,1.805
10491,1.805
10492,1.805
10493,1.805
10494,1.801
10495,1.801
10496,1.805
10497,1.805
10498,1.808
10499,1.808
10500,1.805
10501,1.805
10502,1.808
10503,1.808
10504,1.812
10505,1.816
10506,1.816
10507,1.823
10508,1.823
10509,1.826
10510,1.83
10511,1.834
10512,1.834
10513,1.837
10514,1.834
10515,1.834
10516,1.834
10517,1.834
10518,1.83
10519,1.83
10520,1.83
10521,1.834
10522,1.834
10523,1.834
10524,1.834
10525,1.83
10526,1.834
10527,1.837
10528,1.841
10529,1.837
10530,1.841
10531,1.848
10532,1.852
10533,1.859
10534,1.859
10535,1.863
10536,1.863
10537,1.863
10538,1.866
10539,1.874
10540,1.874
10541,1.874
10542,1.874
10543,1.877
10544,1.874
10545,1.87
10546,1.866
10547,1.863
10548,1.866
10549,1.866
10550,1.87
10551,1.866
10552,1.863
10553,1.859
10554,1.848
10555,1.841
10556,1.834
10557,1.834
10558,1.834
10559,1.834
10560,1.834
10561,1.834
10562,1.834
10563,1.834
10564,1.837
10565,1.837
10566,1.837
10567,1.841
10568,1.841
10569,1.841
10570,1.841
10571,1.845
10572,1.845
10573,1.845
10574,1.848
10575,1.852
10576,1.859
10577,1.863
10578,1.866
10579,1.866
10580,1.866
10581,1.866
10582,1.87
10583,1.866
10584,1.859
10585,1.852
10586,1.841
10587,1.826
10588,1.816
10589,1.808
10590,1.801
10591,1.79
10592,1.783
10593,1.776
10594,1.772
10595,1.779
10596,1.805
10597,1.848
10598,1.917
10599,2.011
10600,2.138
10601,2.268
10602,2.383
10603,2.492
10604,2.586
10605,2.64
10606,2.673
10607,2.673
10608,2.637
10609,2.564
10610,2.463
10611,2.351
10612,2.239
10613,2.13
10614,2.029
10615,1.953
10616,1.902
10617,1.884
10618,1.884
10619,1.895
10620,1.906
10621,1.91
10622,1.91
10623,1.899
10624,1.884
10625,1.874
10626,1.855
10627,1.841
10628,1.826
10629,1.816
10630,1.805
10631,1.798
10632,1.794
10633,1.79
10634,1.79
10635,1.79
10636,1.79
10637,1.787
10638,1.783
10639,1.779
10640,1.776
10641,1.776
10642,1.772
10643,1.772
10644,1.772
10645,1.772
10646,1.769
10647,1.765
10648,1.761
10649,1.754
10650,1.751
10651,1.747
10652,1.747
10653,1.747
10654,1.754
10655,1.761
10656,1.769
10657,1.776
10658,1.783
10659,1.787
10660,1.794
10661,1.794
10662,1.794
10663,1.798
10664,1.798
10665,1.798
10666,1.794
10667,1.794
10668,1.794
10669,1.798
10670,1.798
10671,1.798
10672,1.798
10673,1.798
10674,1.801
10675,1.801
10676,1.801
10677,1.801
10678,1.798
10679,1.794
10680,1.787
10681,1.783
10682,1.783
10683,1.783
10684,1.783
10685,1.787
10686,1.787
10687,1.783
10688,1.783
10689,1.787
10690,1.79
10691,1.794
10692,1.798
10693,1.798
10694,1.801
10695,1.801
10696,1.801
10697,1.798
10698,1.798
10699,1.805
10700,1.812
10701,1.823
10702,1.823
10703,1.823
10704,1.826
10705,1.834
10706,1.834
10707,1.83
10708,1.826
10709,1.83
10710,1.834
10711,1.837
10712,1.841
10713,1.845
10714,1.852
10715,1.863
10716,1.866
10717,1.87
10718,1.874
10719,1.877
10720,1.881
10721,1.884
10722,1.888
10723,1.892
10724,1.888
10725,1.884
10726,1.884
10727,1.888
10728,1.892
10729,1.895
10730,1.902
10731,1.906
10732,1.906
10733,1.91
10734,1.913
10735,1.913
10736,1.917
10737,1.921
10738,1.924
10739,1.924
10740,1.928
10741,1.928
10742,1.924
10743,1.921
10744,1.921
10745,1.917
10746,1.917
10747,1.917
10748,1.917
10749,1.913
10750,1.906
10751,1.899
10752,1.888
10753,1.874
10754,1.863
10755,1.859
10756,1.848
10757,1.837
10758,1.83
10759,1.823
10760,1.816
10761,1.808
10762,1.805
10763,1.798
10764,1.79
10765,1.779
10766,1.769
10767,1.758
10768,1.747
10769,1.74
10770,1.732
10771,1.725
10772,1.722
10773,1.718
10774,1.718
10775,1.718
10776,1.718
10777,1.718
10778,1.718
10779,1.718
10780,1.714
10781,1.714
10782,1.711
10783,1.711
10784,1.711
10785,1.707
10786,1.707
10787,1.704
10788,1.707
10789,1.7
10790,1.693
10791,1.689
10792,1.689
10793,1.689
10794,1.693
10795,1.696
10796,1.7
10797,1.704
10798,1.711
10799,1.711
10800,1.707
10801,1.711
10802,1.711
10803,1.714
10804,1.718
10805,1.718
10806,1.722
10807,1.725
10808,1.722
10809,1.718
10810,1.711
10811,1.707
10812,1.704
10813,1.7
10814,1.696
10815,1.696
10816,1.696
10817,1.7
10818,1.7
10819,1.704
10820,1.707
10821,1.707
10822,1.707
10823,1.707
10824,1.707
10825,1.707
10826,1.704
10827,1.7
10828,1.696
10829,1.696
10830,1.693
10831,1.693
10832,1.685
10833,1.689
10834,1.689
10835,1.693
10836,1.696
10837,1.7
10838,1.7
10839,1.7
10840,1.696
10841,1.696
10842,1.696
10843,1.696
10844,1.704
10845,1.707
10846,1.707
10847,1.711
10848,1.711
10849,1.707
10850,1.704
10851,1.7
10852,1.7
10853,1.7
10854,1.7
10855,1.7
10856,1.7
10857,1.707
10858,1.711
10859,1.718
10860,1.722
10861,1.725
10862,1.725
10863,1.722
10864,1.714
10865,1.707
10866,1.704
10867,1.704
10868,1.7
10869,1.7
10870,1.7
10871,1.704
10872,1.707
10873,1.711
10874,1.718
10875,1.722
10876,1.725
10877,1.729
10878,1.732
10879,1.729
10880,1.729
10881,1.725
10882,1.718
10883,1.714
10884,1.711
10885,1.711
10886,1.707
10887,1.704
10888,1.7
10889,1.7
10890,1.704
10891,1.704
10892,1.707
10893,1.707
10894,1.704
10895,1.707
10896,1.714
10897,1.718
10898,1.722
10899,1.725
10900,1.729
10901,1.729
10902,1.729
10903,1.732
10904,1.732
10905,1.732
10906,1.729
10907,1.722
10908,1.714
10909,1.704
10910,1.704
10911,1.707
10912,1.707
10913,1.707
10914,1.707
10915,1.704
10916,1.704
10917,1.707
10918,1.707
10919,1.707
10920,1.711
10921,1.714
10922,1.714
10923,1.714
10924,1.714
10925,1.718
10926,1.718
10927,1.718
10928,1.722
10929,1.718
10930,1.718
10931,1.714
10932,1.711
10933,1.707
10934,1.704
10935,1.696
10936,1.693
10937,1.693
10938,1.689
10939,1.685
10940,1.678
10941,1.678
10942,1.682
10943,1.685
10944,1.693
10945,1.693
10946,1.693
10947,1.696
10948,1.704
10949,1.707
10950,1.718
10951,1.725
10952,1.729
10953,1.729
10954,1.729
10955,1.729
10956,1.729
10957,1.725
10958,1.722
10959,1.722
10960,1.722
10961,1.725
10962,1.725
10963,1.729
10964,1.729
10965,1.725
10966,1.718
10967,1.711
10968,1.707
10969,1.704
10970,1.704
10971,1.707
10972,1.711
10973,1.711
10974,1.711
10975,1.711
10976,1.707
10977,1.707
10978,1.704
10979,1.7
10980,1.693
10981,1.689
10982,1.693
10983,1.696
10984,1.7
10985,1.704
10986,1.704
10987,1.7
10988,1.696
10989,1.693
10990,1.689
10991,1.689
10992,1.693
10993,1.696
10994,1.696
10995,1.704
10996,1.711
10997,1.714
10998,1.714
10999,1.714
11000,1.711
11001,1.707
11002,1.707
11003,1.707
11004,1.711
11005,1.714
11006,1.722
11007,1.725
11008,1.729
11009,1.732
11010,1.732
11011,1.729
11012,1.729
11013,1.725
11014,1.722
11015,1.718
11016,1.714
11017,1.714
11018,1.711
