,0
0,2.817
1,2.908
2,2.922
3,2.872
4,2.77
5,2.637
6,2.485
7,2.336
8,2.199
9,2.08
10,1.986
11,1.917
12,1.877
13,1.855
14,1.845
15,1.841
16,1.845
17,1.848
18,1.852
19,1.855
20,1.859
21,1.859
22,1.859
23,1.859
24,1.859
25,1.859
26,1.855
27,1.852
28,1.852
29,1.852
30,1.848
31,1.852
32,1.848
33,1.848
34,1.848
35,1.848
36,1.848
37,1.848
38,1.848
39,1.848
40,1.852
41,1.852
42,1.852
43,1.848
44,1.848
45,1.848
46,1.845
47,1.845
48,1.845
49,1.845
50,1.845
51,1.848
52,1.848
53,1.848
54,1.848
55,1.845
56,1.845
57,1.848
58,1.845
59,1.845
60,1.845
61,1.845
62,1.845
63,1.848
64,1.852
65,1.852
66,1.848
67,1.848
68,1.848
69,1.845
70,1.845
71,1.845
72,1.848
73,1.852
74,1.855
75,1.852
76,1.855
77,1.859
78,1.859
79,1.859
80,1.859
81,1.859
82,1.859
83,1.859
84,1.863
85,1.866
86,1.866
87,1.863
88,1.866
89,1.87
90,1.874
91,1.877
92,1.881
93,1.884
94,1.881
95,1.881
96,1.881
97,1.874
98,1.874
99,1.874
100,1.87
101,1.87
102,1.866
103,1.866
104,1.866
105,1.866
106,1.87
107,1.877
108,1.877
109,1.881
110,1.881
111,1.877
112,1.877
113,1.874
114,1.874
115,1.877
116,1.877
117,1.884
118,1.881
119,1.884
120,1.884
121,1.892
122,1.892
123,1.892
124,1.895
125,1.895
126,1.899
127,1.899
128,1.906
129,1.906
130,1.91
131,1.913
132,1.917
133,1.921
134,1.924
135,1.928
136,1.928
137,1.924
138,1.924
139,1.924
140,1.921
141,1.917
142,1.913
143,1.906
144,1.902
145,1.899
146,1.895
147,1.892
148,1.888
149,1.884
150,1.884
151,1.881
152,1.877
153,1.87
154,1.859
155,1.852
156,1.841
157,1.834
158,1.826
159,1.819
160,1.816
161,1.808
162,1.805
163,1.801
164,1.798
165,1.794
166,1.79
167,1.79
168,1.794
169,1.794
170,1.794
171,1.794
172,1.798
173,1.798
174,1.801
175,1.805
176,1.812
177,1.816
178,1.819
179,1.819
180,1.819
181,1.819
182,1.823
183,1.819
184,1.819
185,1.816
186,1.816
187,1.819
188,1.823
189,1.826
190,1.826
191,1.826
192,1.826
193,1.83
194,1.834
195,1.83
196,1.834
197,1.837
198,1.841
199,1.841
200,1.841
201,1.837
202,1.83
203,1.826
204,1.826
205,1.823
206,1.823
207,1.823
208,1.826
209,1.826
210,1.83
211,1.83
212,1.83
213,1.826
214,1.826
215,1.826
216,1.826
217,1.826
218,1.83
219,1.83
220,1.83
221,1.826
222,1.826
223,1.823
224,1.819
225,1.816
226,1.819
227,1.819
228,1.819
229,1.823
230,1.826
231,1.83
232,1.83
233,1.834
234,1.834
235,1.837
236,1.841
237,1.841
238,1.841
239,1.841
240,1.841
241,1.837
242,1.837
243,1.834
244,1.834
245,1.834
246,1.834
247,1.841
248,1.841
249,1.841
250,1.845
251,1.848
252,1.848
253,1.848
254,1.852
255,1.852
256,1.852
257,1.852
258,1.855
259,1.855
260,1.859
261,1.863
262,1.866
263,1.866
264,1.87
265,1.87
266,1.87
267,1.87
268,1.87
269,1.874
270,1.87
271,1.87
272,1.87
273,1.87
274,1.87
275,1.87
276,1.874
277,1.877
278,1.877
279,1.884
280,1.888
281,1.888
282,1.888
283,1.888
284,1.892
285,1.895
286,1.899
287,1.899
288,1.902
289,1.902
290,1.906
291,1.906
292,1.906
293,1.906
294,1.906
295,1.91
296,1.91
297,1.917
298,1.917
299,1.917
300,1.917
301,1.921
302,1.921
303,1.921
304,1.921
305,1.921
306,1.924
307,1.928
308,1.928
309,1.931
310,1.931
311,1.931
312,1.931
313,1.928
314,1.928
315,1.928
316,1.928
317,1.928
318,1.924
319,1.921
320,1.917
321,1.91
322,1.91
323,1.91
324,1.906
325,1.91
326,1.91
327,1.913
328,1.913
329,1.913
330,1.913
331,1.913
332,1.91
333,1.906
334,1.906
335,1.906
336,1.906
337,1.902
338,1.902
339,1.902
340,1.899
341,1.899
342,1.899
343,1.899
344,1.899
345,1.899
346,1.899
347,1.899
348,1.902
349,1.899
350,1.902
351,1.902
352,1.902
353,1.899
354,1.899
355,1.899
356,1.899
357,1.895
358,1.895
359,1.895
360,1.892
361,1.895
362,1.895
363,1.895
364,1.895
365,1.899
366,1.906
367,1.906
368,1.906
369,1.906
370,1.906
371,1.906
372,1.902
373,1.899
374,1.895
375,1.892
376,1.888
377,1.888
378,1.888
379,1.888
380,1.892
381,1.892
382,1.895
383,1.895
384,1.892
385,1.888
386,1.888
387,1.888
388,1.888
389,1.884
390,1.884
391,1.884
392,1.884
393,1.884
394,1.888
395,1.892
396,1.892
397,1.895
398,1.899
399,1.899
400,1.895
401,1.895
402,1.892
403,1.888
404,1.888
405,1.888
406,1.892
407,1.892
408,1.895
409,1.899
410,1.899
411,1.899
412,1.895
413,1.895
414,1.895
415,1.895
416,1.895
417,1.895
418,1.895
419,1.899
420,1.902
421,1.899
422,1.895
423,1.895
424,1.895
425,1.895
426,1.895
427,1.895
428,1.899
429,1.902
430,1.902
431,1.91
432,1.906
433,1.906
434,1.902
435,1.902
436,1.906
437,1.91
438,1.913
439,1.921
440,1.928
441,1.935
442,1.946
443,1.949
444,1.957
445,1.957
446,1.957
447,1.96
448,1.964
449,1.971
450,1.975
451,1.978
452,1.975
453,1.971
454,1.964
455,1.96
456,1.957
457,1.957
458,1.957
459,1.957
460,1.957
461,1.957
462,1.957
463,1.957
464,1.957
465,1.949
466,1.946
467,1.939
468,1.931
469,1.928
470,1.924
471,1.924
472,1.924
473,1.924
474,1.924
475,1.924
476,1.921
477,1.917
478,1.913
479,1.91
480,1.91
481,1.91
482,1.91
483,1.913
484,1.913
485,1.913
486,1.91
487,1.91
488,1.906
489,1.902
490,1.902
491,1.902
492,1.902
493,1.902
494,1.902
495,1.902
496,1.902
497,1.899
498,1.899
499,1.895
500,1.892
501,1.884
502,1.87
503,1.845
504,1.812
505,1.776
506,1.743
507,1.714
508,1.682
509,1.646
510,1.602
511,1.559
512,1.508
513,1.447
514,1.378
515,1.309
516,1.27
517,1.277
518,1.324
519,1.385
520,1.443
521,1.476
522,1.476
523,1.468
524,1.512
525,1.631
526,1.823
527,2.058
528,2.308
529,2.553
530,2.76
531,2.893
532,2.94
533,2.915
534,2.832
535,2.705
536,2.553
537,2.394
538,2.239
539,2.109
540,2.0
541,1.924
542,1.87
543,1.841
544,1.826
545,1.819
546,1.819
547,1.823
548,1.83
549,1.83
550,1.83
551,1.826
552,1.826
553,1.826
554,1.826
555,1.826
556,1.823
557,1.823
558,1.823
559,1.823
560,1.823
561,1.823
562,1.823
563,1.823
564,1.823
565,1.826
566,1.826
567,1.826
568,1.826
569,1.826
570,1.83
571,1.83
572,1.837
573,1.834
574,1.837
575,1.834
576,1.834
577,1.83
578,1.826
579,1.826
580,1.826
581,1.826
582,1.83
583,1.83
584,1.826
585,1.823
586,1.823
587,1.819
588,1.819
589,1.819
590,1.819
591,1.819
592,1.819
593,1.823
594,1.819
595,1.816
596,1.816
597,1.816
598,1.816
599,1.816
600,1.812
601,1.812
602,1.812
603,1.812
604,1.816
605,1.816
606,1.816
607,1.812
608,1.812
609,1.812
610,1.816
611,1.819
612,1.819
613,1.823
614,1.826
615,1.834
616,1.83
617,1.83
618,1.83
619,1.83
620,1.834
621,1.837
622,1.841
623,1.841
624,1.841
625,1.837
626,1.837
627,1.834
628,1.834
629,1.834
630,1.837
631,1.841
632,1.845
633,1.845
634,1.848
635,1.852
636,1.855
637,1.855
638,1.859
639,1.855
640,1.855
641,1.855
642,1.859
643,1.859
644,1.863
645,1.863
646,1.87
647,1.874
648,1.874
649,1.874
650,1.877
651,1.881
652,1.881
653,1.884
654,1.884
655,1.888
656,1.892
657,1.895
658,1.899
659,1.895
660,1.899
661,1.899
662,1.899
663,1.899
664,1.899
665,1.899
666,1.906
667,1.906
668,1.91
669,1.91
670,1.91
671,1.91
672,1.91
673,1.906
674,1.902
675,1.895
676,1.892
677,1.884
678,1.877
679,1.874
680,1.866
681,1.859
682,1.852
683,1.848
684,1.845
685,1.841
686,1.834
687,1.826
688,1.819
689,1.816
690,1.812
691,1.812
692,1.812
693,1.808
694,1.808
695,1.808
696,1.805
697,1.805
698,1.801
699,1.801
700,1.801
701,1.805
702,1.805
703,1.808
704,1.812
705,1.816
706,1.819
707,1.819
708,1.823
709,1.819
710,1.819
711,1.823
712,1.826
713,1.83
714,1.83
715,1.834
716,1.837
717,1.837
718,1.841
719,1.845
720,1.845
721,1.845
722,1.841
723,1.845
724,1.841
725,1.841
726,1.841
727,1.837
728,1.834
729,1.83
730,1.826
731,1.826
732,1.826
733,1.83
734,1.834
735,1.83
736,1.826
737,1.826
738,1.826
739,1.826
740,1.826
741,1.826
742,1.826
743,1.83
744,1.826
745,1.826
746,1.826
747,1.83
748,1.83
749,1.83
750,1.826
751,1.83
752,1.83
753,1.834
754,1.834
755,1.837
756,1.837
757,1.83
758,1.83
759,1.83
760,1.83
761,1.83
762,1.834
763,1.841
764,1.845
765,1.845
766,1.845
767,1.841
768,1.837
769,1.837
770,1.837
771,1.841
772,1.845
773,1.852
774,1.852
775,1.855
776,1.855
777,1.852
778,1.848
779,1.852
780,1.852
781,1.852
782,1.852
783,1.855
784,1.859
785,1.859
786,1.863
787,1.863
788,1.866
789,1.863
790,1.866
791,1.866
792,1.866
793,1.863
794,1.863
795,1.863
796,1.863
797,1.863
798,1.863
799,1.866
800,1.866
801,1.87
802,1.874
803,1.874
804,1.877
805,1.877
806,1.874
807,1.874
808,1.874
809,1.874
810,1.874
811,1.877
812,1.877
813,1.881
814,1.884
815,1.884
816,1.884
817,1.888
818,1.888
819,1.888
820,1.888
821,1.888
822,1.888
823,1.892
824,1.892
825,1.888
826,1.884
827,1.884
828,1.881
829,1.881
830,1.884
831,1.888
832,1.884
833,1.884
834,1.884
835,1.888
836,1.888
837,1.892
838,1.888
839,1.888
840,1.884
841,1.884
842,1.888
843,1.884
844,1.888
845,1.888
846,1.888
847,1.888
848,1.888
849,1.884
850,1.884
851,1.884
852,1.881
853,1.881
854,1.877
855,1.877
856,1.877
857,1.874
858,1.87
859,1.87
860,1.87
861,1.87
862,1.874
863,1.874
864,1.877
865,1.874
866,1.874
867,1.87
868,1.866
869,1.863
870,1.863
871,1.863
872,1.866
873,1.866
874,1.87
875,1.87
876,1.866
877,1.87
878,1.874
879,1.881
880,1.884
881,1.888
882,1.884
883,1.881
884,1.881
885,1.881
886,1.877
887,1.874
888,1.874
889,1.874
890,1.877
891,1.877
892,1.877
893,1.881
894,1.881
895,1.881
896,1.881
897,1.881
898,1.881
899,1.877
900,1.877
901,1.877
902,1.877
903,1.874
904,1.874
905,1.874
906,1.874
907,1.877
908,1.874
909,1.874
910,1.874
911,1.874
912,1.874
913,1.874
914,1.874
915,1.87
916,1.87
917,1.87
918,1.866
919,1.866
920,1.866
921,1.866
922,1.863
923,1.859
924,1.859
925,1.855
926,1.855
927,1.855
928,1.855
929,1.855
930,1.855
931,1.855
932,1.855
933,1.855
934,1.855
935,1.852
936,1.852
937,1.848
938,1.845
939,1.845
940,1.845
941,1.845
942,1.845
943,1.841
944,1.841
945,1.837
946,1.837
947,1.837
948,1.837
949,1.841
950,1.845
951,1.841
952,1.841
953,1.837
954,1.834
955,1.834
956,1.837
957,1.837
958,1.837
959,1.841
960,1.841
961,1.841
962,1.841
963,1.837
964,1.837
965,1.834
966,1.834
967,1.834
968,1.83
969,1.83
970,1.83
971,1.83
972,1.834
973,1.834
974,1.83
975,1.826
976,1.823
977,1.819
978,1.823
979,1.823
980,1.83
981,1.834
982,1.837
983,1.834
984,1.83
985,1.83
986,1.83
987,1.83
988,1.834
989,1.841
990,1.845
991,1.848
992,1.855
993,1.866
994,1.87
995,1.881
996,1.888
997,1.895
998,1.902
999,1.906
1000,1.91
1001,1.917
1002,1.921
1003,1.924
1004,1.931
1005,1.924
1006,1.921
1007,1.917
1008,1.917
1009,1.917
1010,1.917
1011,1.924
1012,1.928
1013,1.928
1014,1.928
1015,1.928
1016,1.924
1017,1.921
1018,1.917
1019,1.913
1020,1.91
1021,1.902
1022,1.895
1023,1.892
1024,1.888
1025,1.884
1026,1.884
1027,1.881
1028,1.881
1029,1.884
1030,1.884
1031,1.892
1032,1.892
1033,1.895
1034,1.895
1035,1.892
1036,1.892
1037,1.892
1038,1.888
1039,1.884
1040,1.881
1041,1.877
1042,1.874
1043,1.874
1044,1.874
1045,1.87
1046,1.87
1047,1.87
1048,1.866
1049,1.863
1050,1.863
1051,1.859
1052,1.859
1053,1.852
1054,1.837
1055,1.819
1056,1.79
1057,1.758
1058,1.729
1059,1.696
1060,1.664
1061,1.628
1062,1.588
1063,1.544
1064,1.494
1065,1.425
1066,1.349
1067,1.291
1068,1.262
1069,1.28
1070,1.331
1071,1.396
1072,1.45
1073,1.483
1074,1.49
1075,1.501
1076,1.566
1077,1.711
1078,1.921
1079,2.159
1080,2.405
1081,2.637
1082,2.817
1083,2.919
1084,2.94
1085,2.89
1086,2.785
1087,2.644
1088,2.481
1089,2.315
1090,2.166
1091,2.043
1092,1.949
1093,1.884
1094,1.845
1095,1.823
1096,1.816
1097,1.816
1098,1.819
1099,1.819
1100,1.823
1101,1.826
1102,1.83
1103,1.83
1104,1.83
1105,1.83
1106,1.83
1107,1.83
1108,1.83
1109,1.83
1110,1.834
1111,1.834
1112,1.837
1113,1.837
1114,1.837
1115,1.837
1116,1.841
1117,1.841
1118,1.841
1119,1.837
1120,1.834
1121,1.834
1122,1.83
1123,1.834
1124,1.826
1125,1.826
1126,1.83
1127,1.83
1128,1.83
1129,1.834
1130,1.834
1131,1.837
1132,1.837
1133,1.837
1134,1.837
1135,1.837
1136,1.837
1137,1.834
1138,1.834
1139,1.834
1140,1.834
1141,1.834
1142,1.834
1143,1.834
1144,1.837
1145,1.837
1146,1.834
1147,1.83
1148,1.83
1149,1.834
1150,1.834
1151,1.834
1152,1.834
1153,1.837
1154,1.837
1155,1.837
1156,1.841
1157,1.837
1158,1.841
1159,1.841
1160,1.841
1161,1.841
1162,1.845
1163,1.845
1164,1.845
1165,1.845
1166,1.852
1167,1.852
1168,1.852
1169,1.855
1170,1.859
1171,1.863
1172,1.863
1173,1.863
1174,1.863
1175,1.863
1176,1.859
1177,1.863
1178,1.859
1179,1.863
1180,1.863
1181,1.866
1182,1.866
1183,1.87
1184,1.874
1185,1.881
1186,1.881
1187,1.877
1188,1.877
1189,1.87
1190,1.87
1191,1.87
1192,1.87
1193,1.87
1194,1.87
1195,1.874
1196,1.877
1197,1.881
1198,1.881
1199,1.888
1200,1.892
1201,1.892
1202,1.892
1203,1.892
1204,1.892
1205,1.892
1206,1.895
1207,1.895
1208,1.899
1209,1.902
1210,1.906
1211,1.906
1212,1.906
1213,1.91
1214,1.913
1215,1.913
1216,1.917
1217,1.921
1218,1.921
1219,1.924
1220,1.928
1221,1.931
1222,1.935
1223,1.935
1224,1.935
1225,1.931
1226,1.928
1227,1.921
1228,1.917
1229,1.913
1230,1.91
1231,1.902
1232,1.899
1233,1.892
1234,1.888
1235,1.881
1236,1.874
1237,1.866
1238,1.863
1239,1.855
1240,1.845
1241,1.841
1242,1.837
1243,1.834
1244,1.834
1245,1.83
1246,1.83
1247,1.83
1248,1.83
1249,1.826
1250,1.823
1251,1.823
1252,1.823
1253,1.823
1254,1.823
1255,1.823
1256,1.826
1257,1.826
1258,1.83
1259,1.834
1260,1.834
1261,1.841
1262,1.841
1263,1.841
1264,1.845
1265,1.845
1266,1.845
1267,1.845
1268,1.848
1269,1.848
1270,1.848
1271,1.852
1272,1.855
1273,1.855
1274,1.859
1275,1.859
1276,1.859
1277,1.859
1278,1.855
1279,1.855
1280,1.855
1281,1.859
1282,1.859
1283,1.855
1284,1.855
1285,1.855
1286,1.852
1287,1.852
1288,1.852
1289,1.852
1290,1.852
1291,1.852
1292,1.852
1293,1.852
1294,1.852
1295,1.848
1296,1.852
1297,1.852
1298,1.852
1299,1.852
1300,1.852
1301,1.848
1302,1.845
1303,1.845
1304,1.845
1305,1.845
1306,1.845
1307,1.848
1308,1.845
1309,1.845
1310,1.845
1311,1.845
1312,1.848
1313,1.852
1314,1.852
1315,1.852
1316,1.855
1317,1.855
1318,1.855
1319,1.855
1320,1.855
1321,1.855
1322,1.855
1323,1.855
1324,1.855
1325,1.855
1326,1.855
1327,1.859
1328,1.855
1329,1.859
1330,1.859
1331,1.863
1332,1.863
1333,1.863
1334,1.863
1335,1.863
1336,1.866
1337,1.866
1338,1.866
1339,1.87
1340,1.874
1341,1.874
1342,1.874
1343,1.877
1344,1.877
1345,1.881
1346,1.877
1347,1.877
1348,1.877
1349,1.877
1350,1.884
1351,1.884
1352,1.884
1353,1.884
1354,1.884
1355,1.884
1356,1.884
1357,1.888
1358,1.892
1359,1.895
1360,1.899
1361,1.902
1362,1.902
1363,1.906
1364,1.906
1365,1.906
1366,1.906
1367,1.902
1368,1.899
1369,1.895
1370,1.895
1371,1.892
1372,1.895
1373,1.895
1374,1.899
1375,1.899
1376,1.902
1377,1.902
1378,1.902
1379,1.902
1380,1.902
1381,1.902
1382,1.902
1383,1.906
1384,1.902
1385,1.906
1386,1.902
1387,1.902
1388,1.906
1389,1.902
1390,1.899
1391,1.899
1392,1.895
1393,1.895
1394,1.899
1395,1.895
1396,1.895
1397,1.899
1398,1.899
1399,1.902
1400,1.906
1401,1.906
1402,1.906
1403,1.91
1404,1.906
1405,1.906
1406,1.906
1407,1.906
1408,1.906
1409,1.906
1410,1.906
1411,1.91
1412,1.91
1413,1.91
1414,1.91
1415,1.913
1416,1.91
1417,1.91
1418,1.91
1419,1.91
1420,1.91
1421,1.91
1422,1.91
1423,1.906
1424,1.906
1425,1.906
1426,1.91
1427,1.91
1428,1.913
1429,1.917
1430,1.913
1431,1.91
1432,1.906
1433,1.906
1434,1.906
1435,1.906
1436,1.91
1437,1.917
1438,1.913
1439,1.913
1440,1.913
1441,1.913
1442,1.913
1443,1.913
1444,1.913
1445,1.913
1446,1.913
1447,1.91
1448,1.91
1449,1.906
1450,1.899
1451,1.895
1452,1.892
1453,1.892
1454,1.892
1455,1.892
1456,1.895
1457,1.902
1458,1.906
1459,1.91
1460,1.91
1461,1.91
1462,1.906
1463,1.906
1464,1.902
1465,1.899
1466,1.899
1467,1.895
1468,1.892
1469,1.895
1470,1.892
1471,1.892
1472,1.892
1473,1.895
1474,1.895
1475,1.892
1476,1.888
1477,1.888
1478,1.884
1479,1.884
1480,1.888
1481,1.892
1482,1.892
1483,1.892
1484,1.895
1485,1.892
1486,1.892
1487,1.892
1488,1.892
1489,1.892
1490,1.892
1491,1.895
1492,1.895
1493,1.895
1494,1.895
1495,1.892
1496,1.892
1497,1.892
1498,1.892
1499,1.892
1500,1.892
1501,1.895
1502,1.899
1503,1.899
1504,1.899
1505,1.899
1506,1.895
1507,1.895
1508,1.892
1509,1.892
1510,1.888
1511,1.892
1512,1.895
1513,1.895
1514,1.899
1515,1.902
1516,1.906
1517,1.906
1518,1.902
1519,1.902
1520,1.899
1521,1.895
1522,1.892
1523,1.888
1524,1.888
1525,1.884
1526,1.884
1527,1.881
1528,1.877
1529,1.877
1530,1.874
1531,1.874
1532,1.874
1533,1.877
1534,1.881
1535,1.884
1536,1.884
1537,1.884
1538,1.884
1539,1.881
1540,1.881
1541,1.877
1542,1.874
1543,1.87
1544,1.866
1545,1.87
1546,1.874
1547,1.877
1548,1.884
1549,1.895
1550,1.906
1551,1.917
1552,1.931
1553,1.942
1554,1.949
1555,1.957
1556,1.964
1557,1.964
1558,1.964
1559,1.96
1560,1.953
1561,1.949
1562,1.946
1563,1.942
1564,1.946
1565,1.949
1566,1.953
1567,1.957
1568,1.96
1569,1.96
1570,1.96
1571,1.957
1572,1.953
1573,1.946
1574,1.942
1575,1.939
1576,1.939
1577,1.939
1578,1.935
1579,1.935
1580,1.935
1581,1.935
1582,1.935
1583,1.928
1584,1.921
1585,1.913
1586,1.91
1587,1.91
1588,1.913
1589,1.913
1590,1.913
1591,1.917
1592,1.917
1593,1.917
1594,1.917
1595,1.917
1596,1.913
1597,1.91
1598,1.906
1599,1.906
1600,1.902
1601,1.899
1602,1.899
1603,1.899
1604,1.895
1605,1.895
1606,1.892
1607,1.892
1608,1.884
1609,1.877
1610,1.866
1611,1.841
1612,1.808
1613,1.772
1614,1.743
1615,1.714
1616,1.682
1617,1.646
1618,1.609
1619,1.566
1620,1.512
1621,1.443
1622,1.374
1623,1.324
1624,1.317
1625,1.349
1626,1.403
1627,1.458
1628,1.49
1629,1.49
1630,1.472
1631,1.483
1632,1.559
1633,1.711
1634,1.917
1635,2.148
1636,2.391
1637,2.619
1638,2.796
1639,2.893
1640,2.912
1641,2.857
1642,2.756
1643,2.619
1644,2.467
1645,2.315
1646,2.177
1647,2.058
1648,1.971
1649,1.906
1650,1.866
1651,1.845
1652,1.837
1653,1.837
1654,1.841
1655,1.848
1656,1.852
1657,1.859
1658,1.859
1659,1.863
1660,1.863
1661,1.863
1662,1.863
1663,1.866
1664,1.866
1665,1.863
1666,1.859
1667,1.859
1668,1.855
1669,1.855
1670,1.855
1671,1.852
1672,1.848
1673,1.841
1674,1.837
1675,1.837
1676,1.837
1677,1.841
1678,1.845
1679,1.845
1680,1.848
1681,1.852
1682,1.855
1683,1.859
1684,1.859
1685,1.855
1686,1.859
1687,1.855
1688,1.855
1689,1.855
1690,1.859
1691,1.859
1692,1.859
1693,1.859
1694,1.855
1695,1.855
1696,1.855
1697,1.855
1698,1.855
1699,1.859
1700,1.859
1701,1.859
1702,1.855
1703,1.855
1704,1.855
1705,1.859
1706,1.863
1707,1.866
1708,1.866
1709,1.866
1710,1.866
1711,1.863
1712,1.859
1713,1.859
1714,1.859
1715,1.863
1716,1.863
1717,1.866
1718,1.866
1719,1.863
1720,1.863
1721,1.859
1722,1.859
1723,1.859
1724,1.859
1725,1.863
1726,1.863
1727,1.863
1728,1.863
1729,1.87
1730,1.87
1731,1.874
1732,1.877
1733,1.881
1734,1.884
1735,1.888
1736,1.888
1737,1.884
1738,1.884
1739,1.881
1740,1.881
1741,1.877
1742,1.877
1743,1.881
1744,1.884
1745,1.888
1746,1.892
1747,1.892
1748,1.895
1749,1.895
1750,1.895
1751,1.895
1752,1.892
1753,1.888
1754,1.892
1755,1.892
1756,1.892
1757,1.895
1758,1.899
1759,1.902
1760,1.902
1761,1.91
1762,1.91
1763,1.91
1764,1.913
1765,1.913
1766,1.917
1767,1.917
1768,1.921
1769,1.924
1770,1.928
1771,1.931
1772,1.935
1773,1.935
1774,1.939
1775,1.939
1776,1.939
1777,1.942
1778,1.942
1779,1.939
1780,1.939
1781,1.935
1782,1.935
1783,1.931
1784,1.921
1785,1.913
1786,1.91
1787,1.902
1788,1.895
1789,1.892
1790,1.884
1791,1.881
1792,1.87
1793,1.866
1794,1.859
1795,1.845
1796,1.834
1797,1.83
1798,1.823
1799,1.819
1800,1.819
1801,1.816
1802,1.816
1803,1.816
1804,1.816
1805,1.812
1806,1.812
1807,1.816
1808,1.819
1809,1.823
1810,1.819
1811,1.816
1812,1.816
1813,1.812
1814,1.816
1815,1.819
1816,1.819
1817,1.819
1818,1.819
1819,1.819
1820,1.816
1821,1.819
1822,1.823
1823,1.823
1824,1.826
1825,1.826
1826,1.826
1827,1.823
1828,1.823
1829,1.826
1830,1.83
1831,1.83
1832,1.83
1833,1.83
1834,1.83
1835,1.83
1836,1.83
1837,1.83
1838,1.826
1839,1.826
1840,1.826
1841,1.826
1842,1.826
1843,1.826
1844,1.826
1845,1.826
1846,1.83
1847,1.83
1848,1.83
1849,1.83
1850,1.83
1851,1.83
1852,1.83
1853,1.834
1854,1.834
1855,1.837
1856,1.841
1857,1.845
1858,1.845
1859,1.845
1860,1.841
1861,1.837
1862,1.834
1863,1.834
1864,1.834
1865,1.834
1866,1.837
1867,1.837
1868,1.841
1869,1.841
1870,1.845
1871,1.845
1872,1.845
1873,1.841
1874,1.841
1875,1.841
1876,1.841
1877,1.845
1878,1.848
1879,1.852
1880,1.859
1881,1.855
1882,1.848
1883,1.845
1884,1.841
1885,1.845
1886,1.845
1887,1.848
1888,1.852
1889,1.852
1890,1.855
1891,1.859
1892,1.855
1893,1.855
1894,1.855
1895,1.855
1896,1.859
1897,1.859
1898,1.863
1899,1.866
1900,1.87
1901,1.874
1902,1.877
1903,1.874
1904,1.874
1905,1.874
1906,1.874
1907,1.874
1908,1.877
1909,1.877
1910,1.877
1911,1.877
1912,1.881
1913,1.884
1914,1.881
1915,1.884
1916,1.884
1917,1.884
1918,1.884
1919,1.884
1920,1.884
1921,1.881
1922,1.881
1923,1.884
1924,1.884
1925,1.881
1926,1.881
1927,1.881
1928,1.881
1929,1.881
1930,1.881
1931,1.881
1932,1.884
1933,1.884
1934,1.892
1935,1.892
1936,1.895
1937,1.895
1938,1.895
1939,1.895
1940,1.895
1941,1.892
1942,1.892
1943,1.892
1944,1.895
1945,1.895
1946,1.899
1947,1.899
1948,1.899
1949,1.899
1950,1.899
1951,1.899
1952,1.902
1953,1.902
1954,1.906
1955,1.906
1956,1.91
1957,1.91
1958,1.91
1959,1.91
1960,1.913
1961,1.913
1962,1.913
1963,1.91
1964,1.906
1965,1.902
1966,1.899
1967,1.899
1968,1.899
1969,1.899
1970,1.899
1971,1.902
1972,1.906
1973,1.91
1974,1.913
1975,1.913
1976,1.917
1977,1.917
1978,1.917
1979,1.913
1980,1.913
1981,1.913
1982,1.913
1983,1.913
1984,1.913
1985,1.913
1986,1.913
1987,1.913
1988,1.917
1989,1.917
1990,1.917
1991,1.913
1992,1.913
1993,1.913
1994,1.913
1995,1.917
1996,1.921
1997,1.924
1998,1.924
1999,1.928
2000,1.924
2001,1.921
2002,1.921
2003,1.917
2004,1.917
2005,1.913
2006,1.913
2007,1.913
2008,1.91
2009,1.913
2010,1.913
2011,1.913
2012,1.913
2013,1.913
2014,1.913
2015,1.917
2016,1.917
2017,1.917
2018,1.917
2019,1.917
2020,1.913
2021,1.913
2022,1.91
2023,1.906
2024,1.906
2025,1.906
2026,1.91
2027,1.91
2028,1.91
2029,1.91
2030,1.91
2031,1.913
2032,1.917
2033,1.913
2034,1.913
2035,1.91
2036,1.906
2037,1.906
2038,1.906
2039,1.906
2040,1.91
2041,1.913
2042,1.921
2043,1.928
2044,1.928
2045,1.928
2046,1.924
2047,1.921
2048,1.913
2049,1.91
2050,1.906
2051,1.906
2052,1.906
2053,1.906
2054,1.902
2055,1.906
2056,1.906
2057,1.906
2058,1.906
2059,1.906
2060,1.902
2061,1.902
2062,1.899
2063,1.899
2064,1.899
2065,1.895
2066,1.895
2067,1.892
2068,1.888
2069,1.884
2070,1.884
2071,1.888
2072,1.888
2073,1.892
2074,1.892
2075,1.895
2076,1.892
2077,1.892
2078,1.888
2079,1.884
2080,1.884
2081,1.888
2082,1.892
2083,1.895
2084,1.899
2085,1.902
2086,1.913
2087,1.917
2088,1.924
2089,1.931
2090,1.935
2091,1.942
2092,1.949
2093,1.953
2094,1.953
2095,1.953
2096,1.953
2097,1.946
2098,1.942
2099,1.939
2100,1.939
2101,1.946
2102,1.949
2103,1.953
2104,1.957
2105,1.957
2106,1.957
2107,1.96
2108,1.957
2109,1.949
2110,1.942
2111,1.931
2112,1.924
2113,1.917
2114,1.913
2115,1.91
2116,1.906
2117,1.902
2118,1.902
2119,1.899
2120,1.899
2121,1.899
2122,1.899
2123,1.895
2124,1.895
2125,1.892
2126,1.888
2127,1.884
2128,1.884
2129,1.881
2130,1.881
2131,1.881
2132,1.881
2133,1.881
2134,1.881
2135,1.881
2136,1.881
2137,1.881
2138,1.881
2139,1.881
2140,1.877
2141,1.874
2142,1.874
2143,1.87
2144,1.866
2145,1.855
2146,1.841
2147,1.819
2148,1.787
2149,1.758
2150,1.725
2151,1.693
2152,1.66
2153,1.624
2154,1.584
2155,1.541
2156,1.487
2157,1.414
2158,1.338
2159,1.28
2160,1.262
2161,1.295
2162,1.36
2163,1.421
2164,1.472
2165,1.494
2166,1.494
2167,1.512
2168,1.588
2169,1.743
2170,1.953
2171,2.188
2172,2.438
2173,2.658
2174,2.828
2175,2.922
2176,2.93
2177,2.872
2178,2.756
2179,2.604
2180,2.438
2181,2.275
2182,2.134
2183,2.018
2184,1.935
2185,1.877
2186,1.841
2187,1.819
2188,1.812
2189,1.816
2190,1.819
2191,1.823
2192,1.823
2193,1.826
2194,1.826
2195,1.83
2196,1.834
2197,1.83
2198,1.83
2199,1.826
2200,1.826
2201,1.826
2202,1.826
2203,1.83
2204,1.834
2205,1.837
2206,1.837
2207,1.834
2208,1.834
2209,1.834
2210,1.834
2211,1.837
2212,1.837
2213,1.837
2214,1.834
2215,1.837
2216,1.83
2217,1.823
2218,1.819
2219,1.819
2220,1.823
2221,1.823
2222,1.826
2223,1.826
2224,1.826
2225,1.83
2226,1.83
2227,1.83
2228,1.83
2229,1.826
2230,1.826
2231,1.823
2232,1.823
2233,1.823
2234,1.823
2235,1.823
2236,1.826
2237,1.83
2238,1.826
2239,1.826
2240,1.826
2241,1.826
2242,1.826
2243,1.83
2244,1.834
2245,1.837
2246,1.837
2247,1.837
2248,1.841
2249,1.837
2250,1.841
2251,1.841
2252,1.841
2253,1.841
2254,1.845
2255,1.845
2256,1.845
2257,1.841
2258,1.837
2259,1.837
2260,1.834
2261,1.834
2262,1.834
2263,1.837
2264,1.837
2265,1.841
2266,1.841
2267,1.841
2268,1.841
2269,1.841
2270,1.845
2271,1.845
2272,1.845
2273,1.841
2274,1.841
2275,1.841
2276,1.841
2277,1.845
2278,1.848
2279,1.852
2280,1.855
2281,1.855
2282,1.855
2283,1.855
2284,1.855
2285,1.855
2286,1.855
2287,1.855
2288,1.859
2289,1.863
2290,1.866
2291,1.87
2292,1.866
2293,1.87
2294,1.87
2295,1.87
2296,1.87
2297,1.874
2298,1.874
2299,1.874
2300,1.874
2301,1.874
2302,1.877
2303,1.877
2304,1.877
2305,1.881
2306,1.881
2307,1.884
2308,1.888
2309,1.892
2310,1.892
2311,1.895
2312,1.895
2313,1.899
2314,1.895
2315,1.892
2316,1.892
2317,1.888
2318,1.884
2319,1.881
2320,1.877
2321,1.87
2322,1.866
2323,1.859
2324,1.848
2325,1.837
2326,1.83
2327,1.823
2328,1.816
2329,1.812
2330,1.805
2331,1.801
2332,1.798
2333,1.794
2334,1.79
2335,1.787
2336,1.779
2337,1.776
2338,1.772
2339,1.772
2340,1.769
2341,1.772
2342,1.776
2343,1.776
2344,1.779
2345,1.783
2346,1.783
2347,1.783
2348,1.787
2349,1.787
2350,1.787
2351,1.787
2352,1.79
2353,1.79
2354,1.794
2355,1.798
2356,1.801
2357,1.798
2358,1.798
2359,1.801
2360,1.801
2361,1.805
2362,1.805
2363,1.808
2364,1.808
2365,1.812
2366,1.816
2367,1.819
2368,1.816
2369,1.816
2370,1.816
2371,1.816
2372,1.816
2373,1.816
2374,1.812
2375,1.812
2376,1.808
2377,1.808
2378,1.808
2379,1.812
2380,1.816
2381,1.819
2382,1.819
2383,1.819
2384,1.819
2385,1.816
2386,1.816
2387,1.819
2388,1.823
2389,1.819
2390,1.823
2391,1.826
2392,1.826
2393,1.826
2394,1.823
2395,1.823
2396,1.823
2397,1.819
2398,1.819
2399,1.823
2400,1.823
2401,1.823
2402,1.823
2403,1.823
2404,1.823
2405,1.819
2406,1.819
2407,1.819
2408,1.816
2409,1.816
2410,1.816
2411,1.812
2412,1.812
2413,1.816
2414,1.816
2415,1.819
2416,1.823
2417,1.826
2418,1.83
2419,1.83
2420,1.834
2421,1.837
2422,1.837
2423,1.837
2424,1.837
2425,1.834
2426,1.83
2427,1.83
2428,1.826
2429,1.83
2430,1.83
2431,1.834
2432,1.837
2433,1.837
2434,1.837
2435,1.841
2436,1.841
2437,1.841
2438,1.845
2439,1.845
2440,1.848
2441,1.848
2442,1.848
2443,1.852
2444,1.852
2445,1.852
2446,1.855
2447,1.855
2448,1.855
2449,1.855
2450,1.855
2451,1.859
2452,1.859
2453,1.863
2454,1.863
2455,1.866
2456,1.866
2457,1.866
2458,1.866
2459,1.866
2460,1.866
2461,1.87
2462,1.87
2463,1.866
2464,1.874
2465,1.87
2466,1.874
2467,1.874
2468,1.874
2469,1.874
2470,1.874
2471,1.874
2472,1.874
2473,1.874
2474,1.874
2475,1.874
2476,1.874
2477,1.874
2478,1.874
2479,1.874
2480,1.87
2481,1.87
2482,1.87
2483,1.87
2484,1.87
2485,1.874
2486,1.874
2487,1.87
2488,1.87
2489,1.87
2490,1.87
2491,1.87
2492,1.87
2493,1.87
2494,1.87
2495,1.87
2496,1.87
2497,1.874
2498,1.874
2499,1.874
2500,1.877
2501,1.874
2502,1.874
2503,1.874
2504,1.877
2505,1.877
2506,1.877
2507,1.881
2508,1.881
2509,1.877
2510,1.881
2511,1.881
2512,1.884
2513,1.884
2514,1.888
2515,1.888
2516,1.888
2517,1.884
2518,1.884
2519,1.881
2520,1.877
2521,1.877
2522,1.874
2523,1.87
2524,1.87
2525,1.87
2526,1.87
2527,1.874
2528,1.874
2529,1.881
2530,1.877
2531,1.877
2532,1.877
2533,1.877
2534,1.877
2535,1.881
2536,1.881
2537,1.881
2538,1.881
2539,1.881
2540,1.881
2541,1.881
2542,1.881
2543,1.881
2544,1.881
2545,1.881
2546,1.881
2547,1.881
2548,1.881
2549,1.877
2550,1.877
2551,1.877
2552,1.874
2553,1.874
2554,1.874
2555,1.87
2556,1.87
2557,1.874
2558,1.874
2559,1.877
2560,1.884
2561,1.888
2562,1.884
2563,1.884
2564,1.884
2565,1.881
2566,1.881
2567,1.881
2568,1.881
2569,1.881
2570,1.881
2571,1.881
2572,1.881
2573,1.881
2574,1.881
2575,1.881
2576,1.881
2577,1.881
2578,1.881
2579,1.884
2580,1.884
2581,1.884
2582,1.884
2583,1.884
2584,1.881
2585,1.877
2586,1.877
2587,1.881
2588,1.884
2589,1.888
2590,1.888
2591,1.892
2592,1.888
2593,1.888
2594,1.888
2595,1.884
2596,1.881
2597,1.881
2598,1.881
2599,1.884
2600,1.884
2601,1.888
2602,1.892
2603,1.892
2604,1.892
2605,1.892
2606,1.888
2607,1.888
2608,1.888
2609,1.888
2610,1.884
2611,1.884
2612,1.884
2613,1.881
2614,1.881
2615,1.877
2616,1.877
2617,1.874
2618,1.87
2619,1.87
2620,1.87
2621,1.87
2622,1.874
2623,1.874
2624,1.874
2625,1.877
2626,1.881
2627,1.884
2628,1.884
2629,1.888
2630,1.892
2631,1.895
2632,1.899
2633,1.902
2634,1.906
2635,1.91
2636,1.917
2637,1.924
2638,1.928
2639,1.931
2640,1.939
2641,1.942
2642,1.946
2643,1.946
2644,1.946
2645,1.942
2646,1.939
2647,1.935
2648,1.942
2649,1.942
2650,1.946
2651,1.949
2652,1.953
2653,1.949
2654,1.946
2655,1.942
2656,1.939
2657,1.931
2658,1.928
2659,1.921
2660,1.913
2661,1.91
2662,1.906
2663,1.902
2664,1.902
2665,1.902
2666,1.899
2667,1.895
2668,1.895
2669,1.892
2670,1.892
2671,1.888
2672,1.892
2673,1.892
2674,1.892
2675,1.892
2676,1.892
2677,1.892
2678,1.892
2679,1.895
2680,1.895
2681,1.892
2682,1.888
2683,1.884
2684,1.881
2685,1.877
2686,1.877
2687,1.874
2688,1.87
2689,1.87
2690,1.87
2691,1.866
2692,1.855
2693,1.841
2694,1.823
2695,1.798
2696,1.761
2697,1.729
2698,1.704
2699,1.675
2700,1.642
2701,1.602
2702,1.562
2703,1.512
2704,1.447
2705,1.374
2706,1.313
2707,1.28
2708,1.288
2709,1.331
2710,1.392
2711,1.443
2712,1.472
2713,1.472
2714,1.465
2715,1.505
2716,1.617
2717,1.801
2718,2.025
2719,2.268
2720,2.51
2721,2.72
2722,2.861
2723,2.922
2724,2.908
2725,2.825
2726,2.695
2727,2.539
2728,2.373
2729,2.217
2730,2.083
2731,1.978
2732,1.906
2733,1.859
2734,1.834
2735,1.823
2736,1.819
2737,1.819
2738,1.819
2739,1.823
2740,1.826
2741,1.826
2742,1.83
2743,1.83
2744,1.83
2745,1.826
2746,1.826
2747,1.823
2748,1.823
2749,1.823
2750,1.823
2751,1.823
2752,1.826
2753,1.826
2754,1.826
2755,1.826
2756,1.83
2757,1.83
2758,1.83
2759,1.834
2760,1.837
2761,1.841
2762,1.841
2763,1.848
2764,1.852
2765,1.852
2766,1.845
2767,1.841
2768,1.837
2769,1.834
2770,1.834
2771,1.834
2772,1.834
2773,1.834
2774,1.834
2775,1.834
2776,1.837
2777,1.837
2778,1.845
2779,1.841
2780,1.841
2781,1.841
2782,1.837
2783,1.834
2784,1.83
2785,1.83
2786,1.826
2787,1.823
2788,1.823
2789,1.819
2790,1.819
2791,1.819
2792,1.823
2793,1.826
2794,1.83
2795,1.834
2796,1.837
2797,1.837
2798,1.837
2799,1.841
2800,1.841
2801,1.841
2802,1.841
2803,1.845
2804,1.841
2805,1.841
2806,1.841
2807,1.845
2808,1.845
2809,1.845
2810,1.852
2811,1.848
2812,1.848
2813,1.848
2814,1.848
2815,1.845
2816,1.845
2817,1.841
2818,1.841
2819,1.845
2820,1.845
2821,1.852
2822,1.852
2823,1.852
2824,1.852
2825,1.855
2826,1.859
2827,1.866
2828,1.874
2829,1.881
2830,1.884
2831,1.888
2832,1.892
2833,1.884
2834,1.884
2835,1.884
2836,1.884
2837,1.892
2838,1.895
2839,1.899
2840,1.899
2841,1.902
2842,1.906
2843,1.91
2844,1.913
2845,1.917
2846,1.921
2847,1.924
2848,1.924
2849,1.928
2850,1.928
2851,1.928
2852,1.928
2853,1.931
2854,1.928
2855,1.924
2856,1.928
2857,1.928
2858,1.931
2859,1.931
2860,1.935
2861,1.931
2862,1.928
2863,1.924
2864,1.924
2865,1.913
2866,1.906
2867,1.899
2868,1.892
2869,1.881
2870,1.87
2871,1.863
2872,1.855
2873,1.845
2874,1.837
2875,1.826
2876,1.812
2877,1.801
2878,1.794
2879,1.787
2880,1.783
2881,1.783
2882,1.783
2883,1.783
2884,1.779
2885,1.776
2886,1.772
2887,1.772
2888,1.769
2889,1.769
2890,1.769
2891,1.769
2892,1.769
2893,1.769
2894,1.769
2895,1.769
2896,1.772
2897,1.776
2898,1.779
2899,1.783
2900,1.787
2901,1.79
2902,1.79
2903,1.794
2904,1.794
2905,1.794
2906,1.798
2907,1.798
2908,1.798
2909,1.798
2910,1.798
2911,1.801
2912,1.801
2913,1.798
2914,1.801
2915,1.801
2916,1.801
2917,1.801
2918,1.805
2919,1.805
2920,1.805
2921,1.805
2922,1.808
2923,1.808
2924,1.808
2925,1.812
2926,1.812
2927,1.816
2928,1.819
2929,1.823
2930,1.823
2931,1.826
2932,1.83
2933,1.834
2934,1.837
2935,1.837
2936,1.834
2937,1.834
2938,1.834
2939,1.834
2940,1.837
2941,1.837
2942,1.837
2943,1.837
2944,1.834
2945,1.834
2946,1.834
2947,1.834
2948,1.834
2949,1.834
2950,1.834
2951,1.837
2952,1.837
2953,1.837
2954,1.837
2955,1.841
2956,1.841
2957,1.841
2958,1.841
2959,1.845
2960,1.848
2961,1.848
2962,1.852
2963,1.852
2964,1.855
2965,1.859
2966,1.859
2967,1.859
2968,1.863
2969,1.859
2970,1.859
2971,1.855
2972,1.859
2973,1.859
2974,1.855
2975,1.852
2976,1.852
2977,1.852
2978,1.852
2979,1.855
2980,1.859
2981,1.859
2982,1.859
2983,1.859
2984,1.855
2985,1.852
2986,1.848
2987,1.845
2988,1.848
2989,1.852
2990,1.855
2991,1.859
2992,1.863
2993,1.866
2994,1.874
2995,1.874
2996,1.874
2997,1.874
2998,1.877
2999,1.877
3000,1.881
3001,1.881
3002,1.881
3003,1.884
3004,1.888
3005,1.892
3006,1.888
3007,1.888
3008,1.888
3009,1.888
3010,1.888
3011,1.888
3012,1.888
3013,1.892
3014,1.892
3015,1.895
3016,1.895
3017,1.895
3018,1.895
3019,1.895
3020,1.895
3021,1.895
3022,1.895
3023,1.895
3024,1.895
3025,1.895
3026,1.895
3027,1.895
3028,1.892
3029,1.888
3030,1.884
3031,1.881
3032,1.881
3033,1.877
3034,1.877
3035,1.877
3036,1.877
3037,1.877
3038,1.874
3039,1.87
3040,1.87
3041,1.866
3042,1.866
3043,1.87
3044,1.87
3045,1.87
3046,1.87
3047,1.87
3048,1.874
3049,1.874
3050,1.874
3051,1.87
3052,1.87
3053,1.866
3054,1.859
3055,1.859
3056,1.863
3057,1.866
3058,1.866
3059,1.87
3060,1.866
3061,1.87
3062,1.87
3063,1.87
3064,1.866
3065,1.863
3066,1.863
3067,1.863
3068,1.863
3069,1.863
3070,1.866
3071,1.863
3072,1.863
3073,1.863
3074,1.863
3075,1.859
3076,1.859
3077,1.859
3078,1.859
3079,1.863
3080,1.863
3081,1.863
3082,1.863
3083,1.863
3084,1.863
3085,1.863
3086,1.866
3087,1.866
3088,1.866
3089,1.866
3090,1.87
3091,1.87
3092,1.87
3093,1.866
3094,1.866
3095,1.87
3096,1.87
3097,1.87
3098,1.866
3099,1.866
3100,1.87
3101,1.87
3102,1.874
3103,1.874
3104,1.874
3105,1.87
3106,1.866
3107,1.866
3108,1.866
3109,1.866
3110,1.863
3111,1.863
3112,1.859
3113,1.859
3114,1.859
3115,1.859
3116,1.859
3117,1.859
3118,1.859
3119,1.863
3120,1.863
3121,1.866
3122,1.87
3123,1.87
3124,1.874
3125,1.87
3126,1.866
3127,1.863
3128,1.859
3129,1.859
3130,1.855
3131,1.855
3132,1.859
3133,1.859
3134,1.859
3135,1.863
3136,1.863
3137,1.863
3138,1.866
3139,1.87
3140,1.87
3141,1.87
3142,1.87
3143,1.87
3144,1.87
3145,1.874
3146,1.874
3147,1.87
3148,1.866
3149,1.866
3150,1.863
3151,1.863
3152,1.863
3153,1.863
3154,1.859
3155,1.859
3156,1.859
3157,1.855
3158,1.859
3159,1.859
3160,1.863
3161,1.866
3162,1.863
3163,1.863
3164,1.863
3165,1.866
3166,1.87
3167,1.874
3168,1.877
3169,1.884
3170,1.888
3171,1.895
3172,1.902
3173,1.91
3174,1.917
3175,1.921
3176,1.924
3177,1.931
3178,1.935
3179,1.939
3180,1.942
3181,1.942
3182,1.939
3183,1.939
3184,1.942
3185,1.946
3186,1.953
3187,1.957
3188,1.96
3189,1.96
3190,1.957
3191,1.957
3192,1.953
3193,1.949
3194,1.942
3195,1.935
3196,1.928
3197,1.924
3198,1.921
3199,1.921
3200,1.921
3201,1.917
3202,1.913
3203,1.913
3204,1.91
3205,1.906
3206,1.902
3207,1.902
3208,1.902
3209,1.899
3210,1.902
3211,1.906
3212,1.902
3213,1.902
3214,1.902
3215,1.902
3216,1.899
3217,1.899
3218,1.895
3219,1.895
3220,1.892
3221,1.895
3222,1.895
3223,1.895
3224,1.895
3225,1.895
3226,1.895
3227,1.899
3228,1.892
3229,1.888
3230,1.877
3231,1.863
3232,1.837
3233,1.805
3234,1.769
3235,1.736
3236,1.704
3237,1.671
3238,1.638
3239,1.599
3240,1.559
3241,1.512
3242,1.45
3243,1.389
3244,1.338
3245,1.317
3246,1.338
3247,1.392
3248,1.454
3249,1.497
3250,1.508
3251,1.494
3252,1.494
3253,1.552
3254,1.696
3255,1.895
3256,2.127
3257,2.369
3258,2.597
3259,2.781
3260,2.893
3261,2.926
3262,2.886
3263,2.792
3264,2.662
3265,2.503
3266,2.347
3267,2.199
3268,2.076
3269,1.986
3270,1.921
3271,1.881
3272,1.863
3273,1.852
3274,1.852
3275,1.859
3276,1.863
3277,1.863
3278,1.863
3279,1.859
3280,1.859
3281,1.859
3282,1.863
3283,1.863
3284,1.863
3285,1.863
3286,1.863
3287,1.855
3288,1.852
3289,1.848
3290,1.845
3291,1.845
3292,1.848
3293,1.848
3294,1.852
3295,1.852
3296,1.848
3297,1.852
3298,1.845
3299,1.845
3300,1.845
3301,1.845
3302,1.845
3303,1.845
3304,1.845
3305,1.852
3306,1.855
3307,1.855
3308,1.852
3309,1.852
3310,1.852
3311,1.848
3312,1.848
3313,1.848
3314,1.848
3315,1.852
3316,1.852
3317,1.852
3318,1.852
3319,1.852
3320,1.845
3321,1.845
3322,1.841
3323,1.845
3324,1.845
3325,1.848
3326,1.848
3327,1.848
3328,1.848
3329,1.852
3330,1.855
3331,1.855
3332,1.855
3333,1.859
3334,1.863
3335,1.863
3336,1.863
3337,1.863
3338,1.859
3339,1.859
3340,1.859
3341,1.859
3342,1.859
3343,1.859
3344,1.863
3345,1.866
3346,1.866
3347,1.87
3348,1.874
3349,1.874
3350,1.874
3351,1.874
3352,1.874
3353,1.874
3354,1.877
3355,1.877
3356,1.877
3357,1.877
3358,1.877
3359,1.881
3360,1.884
3361,1.884
3362,1.892
3363,1.888
3364,1.888
3365,1.888
3366,1.892
3367,1.892
3368,1.895
3369,1.899
3370,1.902
3371,1.906
3372,1.91
3373,1.917
3374,1.917
3375,1.921
3376,1.924
3377,1.928
3378,1.931
3379,1.931
3380,1.928
3381,1.928
3382,1.931
3383,1.931
3384,1.931
3385,1.928
3386,1.928
3387,1.928
3388,1.931
3389,1.935
3390,1.939
3391,1.942
3392,1.946
3393,1.949
3394,1.957
3395,1.953
3396,1.957
3397,1.96
3398,1.96
3399,1.96
3400,1.957
3401,1.953
3402,1.949
3403,1.942
3404,1.939
3405,1.939
3406,1.928
3407,1.921
3408,1.913
3409,1.906
3410,1.895
3411,1.888
3412,1.881
3413,1.87
3414,1.866
3415,1.859
3416,1.859
3417,1.848
3418,1.845
3419,1.841
3420,1.837
3421,1.834
3422,1.83
3423,1.83
3424,1.83
3425,1.83
3426,1.83
3427,1.83
3428,1.83
3429,1.83
3430,1.834
3431,1.834
3432,1.837
3433,1.837
3434,1.837
3435,1.837
3436,1.837
3437,1.845
3438,1.845
3439,1.845
3440,1.845
3441,1.848
3442,1.848
3443,1.848
3444,1.852
3445,1.852
3446,1.852
3447,1.852
3448,1.855
3449,1.855
3450,1.855
3451,1.859
3452,1.863
3453,1.863
3454,1.863
3455,1.863
3456,1.863
3457,1.863
3458,1.866
3459,1.866
3460,1.866
3461,1.866
3462,1.863
3463,1.863
3464,1.859
3465,1.859
3466,1.859
3467,1.855
3468,1.855
3469,1.855
3470,1.859
3471,1.855
3472,1.859
3473,1.863
3474,1.866
3475,1.866
3476,1.87
3477,1.87
3478,1.866
3479,1.863
3480,1.855
3481,1.855
3482,1.855
3483,1.855
3484,1.859
3485,1.859
3486,1.859
3487,1.859
3488,1.859
3489,1.859
3490,1.855
3491,1.852
3492,1.845
3493,1.841
3494,1.841
3495,1.841
3496,1.845
3497,1.848
3498,1.852
3499,1.855
3500,1.859
3501,1.863
3502,1.863
3503,1.863
3504,1.863
3505,1.859
3506,1.855
3507,1.855
3508,1.855
3509,1.855
3510,1.855
3511,1.855
3512,1.855
3513,1.859
3514,1.859
3515,1.859
3516,1.863
3517,1.863
3518,1.863
3519,1.866
3520,1.866
3521,1.866
3522,1.866
3523,1.866
3524,1.87
3525,1.87
3526,1.87
3527,1.87
3528,1.87
3529,1.874
3530,1.874
3531,1.877
3532,1.881
3533,1.881
3534,1.877
3535,1.877
3536,1.874
3537,1.874
3538,1.874
3539,1.874
3540,1.874
3541,1.874
3542,1.877
3543,1.877
3544,1.877
3545,1.881
3546,1.881
3547,1.877
3548,1.877
3549,1.877
3550,1.881
3551,1.881
3552,1.884
3553,1.888
3554,1.888
3555,1.884
3556,1.888
3557,1.881
3558,1.881
3559,1.881
3560,1.881
3561,1.884
3562,1.881
3563,1.881
3564,1.881
3565,1.881
3566,1.881
3567,1.884
3568,1.881
3569,1.881
3570,1.881
3571,1.884
3572,1.884
3573,1.884
3574,1.884
3575,1.884
3576,1.881
3577,1.884
3578,1.888
3579,1.884
3580,1.888
3581,1.888
3582,1.888
3583,1.888
3584,1.888
3585,1.888
3586,1.892
3587,1.892
3588,1.892
3589,1.895
3590,1.892
3591,1.892
3592,1.892
3593,1.892
3594,1.888
3595,1.888
3596,1.888
3597,1.892
3598,1.892
3599,1.895
3600,1.895
3601,1.892
3602,1.892
3603,1.892
3604,1.892
3605,1.895
3606,1.895
3607,1.895
3608,1.899
3609,1.899
3610,1.899
3611,1.899
3612,1.895
3613,1.895
3614,1.899
3615,1.899
3616,1.902
3617,1.902
3618,1.902
3619,1.902
3620,1.902
3621,1.906
3622,1.902
3623,1.899
3624,1.899
3625,1.899
3626,1.899
3627,1.899
3628,1.902
3629,1.902
3630,1.899
3631,1.899
3632,1.902
3633,1.899
3634,1.899
3635,1.895
3636,1.892
3637,1.888
3638,1.888
3639,1.888
3640,1.892
3641,1.892
3642,1.892
3643,1.892
3644,1.888
3645,1.884
3646,1.888
3647,1.888
3648,1.888
3649,1.888
3650,1.888
3651,1.892
3652,1.892
3653,1.892
3654,1.895
3655,1.892
3656,1.888
3657,1.884
3658,1.881
3659,1.881
3660,1.881
3661,1.881
3662,1.884
3663,1.884
3664,1.884
3665,1.888
3666,1.888
3667,1.892
3668,1.892
3669,1.892
3670,1.888
3671,1.888
3672,1.884
3673,1.884
3674,1.884
3675,1.884
3676,1.888
3677,1.884
3678,1.884
3679,1.884
3680,1.884
3681,1.881
3682,1.881
3683,1.881
3684,1.877
3685,1.874
3686,1.874
3687,1.87
3688,1.866
3689,1.859
3690,1.859
3691,1.859
3692,1.855
3693,1.855
3694,1.852
3695,1.852
3696,1.852
3697,1.859
3698,1.859
3699,1.859
3700,1.859
3701,1.855
3702,1.855
3703,1.852
3704,1.852
3705,1.852
3706,1.848
3707,1.852
3708,1.855
3709,1.852
3710,1.852
3711,1.848
3712,1.848
3713,1.845
3714,1.841
3715,1.841
3716,1.837
3717,1.834
3718,1.834
3719,1.834
3720,1.83
3721,1.83
3722,1.83
3723,1.826
3724,1.823
3725,1.823
3726,1.823
3727,1.823
3728,1.826
3729,1.834
3730,1.841
3731,1.845
3732,1.855
3733,1.863
3734,1.87
3735,1.881
3736,1.888
3737,1.892
3738,1.899
3739,1.906
3740,1.913
3741,1.913
3742,1.913
3743,1.913
3744,1.913
3745,1.917
3746,1.921
3747,1.928
3748,1.935
3749,1.939
3750,1.942
3751,1.946
3752,1.946
3753,1.942
3754,1.942
3755,1.939
3756,1.935
3757,1.928
3758,1.924
3759,1.921
3760,1.921
3761,1.917
3762,1.917
3763,1.913
3764,1.91
3765,1.906
3766,1.906
3767,1.902
3768,1.899
3769,1.899
3770,1.899
3771,1.902
3772,1.902
3773,1.902
3774,1.902
3775,1.902
3776,1.902
3777,1.902
3778,1.899
3779,1.895
3780,1.892
3781,1.888
3782,1.884
3783,1.884
3784,1.881
3785,1.881
3786,1.881
3787,1.881
3788,1.877
3789,1.874
3790,1.87
3791,1.863
3792,1.852
3793,1.834
3794,1.808
3795,1.772
3796,1.732
3797,1.696
3798,1.664
3799,1.631
3800,1.595
3801,1.555
3802,1.512
3803,1.458
3804,1.389
3805,1.324
3806,1.27
3807,1.251
3808,1.284
3809,1.349
3810,1.418
3811,1.468
3812,1.494
3813,1.497
3814,1.512
3815,1.584
3816,1.732
3817,1.935
3818,2.17
3819,2.409
3820,2.633
3821,2.799
3822,2.89
3823,2.901
3824,2.843
3825,2.731
3826,2.586
3827,2.423
3828,2.257
3829,2.112
3830,1.993
3831,1.902
3832,1.845
3833,1.808
3834,1.79
3835,1.787
3836,1.79
3837,1.794
3838,1.801
3839,1.805
3840,1.808
3841,1.808
3842,1.805
3843,1.805
3844,1.805
3845,1.808
3846,1.812
3847,1.816
3848,1.819
3849,1.819
3850,1.823
3851,1.826
3852,1.83
3853,1.83
3854,1.834
3855,1.837
3856,1.837
3857,1.834
3858,1.834
3859,1.834
3860,1.83
3861,1.83
3862,1.83
3863,1.83
3864,1.83
3865,1.83
3866,1.834
3867,1.834
3868,1.834
3869,1.834
3870,1.837
3871,1.837
3872,1.841
3873,1.845
3874,1.845
3875,1.848
3876,1.848
3877,1.852
3878,1.852
3879,1.848
3880,1.845
3881,1.845
3882,1.841
3883,1.841
3884,1.845
3885,1.845
3886,1.848
3887,1.852
3888,1.855
3889,1.855
3890,1.852
3891,1.852
3892,1.852
3893,1.848
3894,1.848
3895,1.848
3896,1.848
3897,1.852
3898,1.855
3899,1.859
3900,1.859
3901,1.859
3902,1.863
3903,1.863
3904,1.863
3905,1.863
3906,1.863
3907,1.863
3908,1.863
3909,1.863
3910,1.863
3911,1.866
3912,1.866
3913,1.87
3914,1.87
3915,1.874
3916,1.874
3917,1.874
3918,1.874
3919,1.874
3920,1.877
3921,1.877
3922,1.877
3923,1.881
3924,1.884
3925,1.888
3926,1.892
3927,1.899
3928,1.902
3929,1.902
3930,1.902
3931,1.902
3932,1.902
3933,1.906
3934,1.91
3935,1.917
3936,1.917
3937,1.917
3938,1.917
3939,1.917
3940,1.917
3941,1.917
3942,1.921
3943,1.924
3944,1.924
3945,1.924
3946,1.921
3947,1.917
3948,1.917
3949,1.917
3950,1.917
3951,1.917
3952,1.921
3953,1.921
3954,1.924
3955,1.928
3956,1.931
3957,1.931
3958,1.931
3959,1.935
3960,1.935
3961,1.935
3962,1.935
3963,1.935
3964,1.931
3965,1.928
3966,1.924
3967,1.921
3968,1.913
3969,1.906
3970,1.899
3971,1.892
3972,1.884
3973,1.877
3974,1.87
3975,1.863
3976,1.855
3977,1.848
3978,1.841
3979,1.834
3980,1.826
3981,1.823
3982,1.819
3983,1.812
3984,1.808
3985,1.808
3986,1.808
3987,1.805
3988,1.808
3989,1.808
3990,1.808
3991,1.808
3992,1.805
3993,1.808
3994,1.812
3995,1.816
3996,1.816
3997,1.819
3998,1.823
3999,1.826
4000,1.834
4001,1.834
4002,1.837
4003,1.837
4004,1.837
4005,1.837
4006,1.841
4007,1.841
4008,1.841
4009,1.837
4010,1.834
4011,1.837
4012,1.834
4013,1.834
4014,1.83
4015,1.83
4016,1.83
4017,1.834
4018,1.837
4019,1.837
4020,1.837
4021,1.841
4022,1.837
4023,1.837
4024,1.837
4025,1.834
4026,1.83
4027,1.83
4028,1.826
4029,1.826
4030,1.826
4031,1.83
4032,1.834
4033,1.83
4034,1.834
4035,1.834
4036,1.837
4037,1.837
4038,1.837
4039,1.837
4040,1.837
4041,1.837
4042,1.841
4043,1.841
4044,1.841
4045,1.837
4046,1.837
4047,1.837
4048,1.834
4049,1.834
4050,1.834
4051,1.837
4052,1.837
4053,1.841
4054,1.845
4055,1.845
4056,1.845
4057,1.841
4058,1.841
4059,1.841
4060,1.837
4061,1.841
4062,1.841
4063,1.841
4064,1.841
4065,1.845
4066,1.848
4067,1.848
4068,1.852
4069,1.852
4070,1.848
4071,1.848
4072,1.848
4073,1.852
4074,1.852
4075,1.852
4076,1.855
4077,1.852
4078,1.852
4079,1.848
4080,1.845
4081,1.848
4082,1.848
4083,1.848
4084,1.852
4085,1.855
4086,1.859
4087,1.863
4088,1.863
4089,1.863
4090,1.859
4091,1.863
4092,1.863
4093,1.863
4094,1.866
4095,1.866
4096,1.87
4097,1.874
4098,1.874
4099,1.874
4100,1.877
4101,1.881
4102,1.881
4103,1.881
4104,1.881
4105,1.881
4106,1.881
4107,1.881
4108,1.881
4109,1.881
4110,1.881
4111,1.881
4112,1.881
4113,1.881
4114,1.881
4115,1.884
4116,1.884
4117,1.884
4118,1.884
4119,1.888
4120,1.881
4121,1.881
4122,1.877
4123,1.874
4124,1.87
4125,1.866
4126,1.87
4127,1.87
4128,1.874
4129,1.874
4130,1.877
4131,1.877
4132,1.874
4133,1.874
4134,1.874
4135,1.874
4136,1.87
4137,1.87
4138,1.874
4139,1.874
4140,1.877
4141,1.874
4142,1.877
4143,1.877
4144,1.877
4145,1.877
4146,1.881
4147,1.884
4148,1.888
4149,1.892
4150,1.895
4151,1.902
4152,1.902
4153,1.902
4154,1.902
4155,1.899
4156,1.899
4157,1.895
4158,1.892
4159,1.888
4160,1.884
4161,1.881
4162,1.881
4163,1.877
4164,1.877
4165,1.877
4166,1.877
4167,1.881
4168,1.881
4169,1.884
4170,1.888
4171,1.888
4172,1.892
4173,1.892
4174,1.892
4175,1.892
4176,1.892
4177,1.892
4178,1.892
4179,1.892
4180,1.888
4181,1.888
4182,1.888
4183,1.888
4184,1.892
4185,1.892
4186,1.895
4187,1.899
4188,1.899
4189,1.899
4190,1.899
4191,1.899
4192,1.899
4193,1.902
4194,1.902
4195,1.899
4196,1.895
4197,1.892
4198,1.888
4199,1.888
4200,1.888
4201,1.888
4202,1.888
4203,1.888
4204,1.892
4205,1.895
4206,1.892
4207,1.892
4208,1.895
4209,1.895
4210,1.895
4211,1.895
4212,1.895
4213,1.895
4214,1.895
4215,1.892
4216,1.892
4217,1.888
4218,1.884
4219,1.881
4220,1.881
4221,1.881
4222,1.884
4223,1.884
4224,1.884
4225,1.884
4226,1.884
4227,1.884
4228,1.881
4229,1.881
4230,1.881
4231,1.884
4232,1.884
4233,1.892
4234,1.892
4235,1.895
4236,1.895
4237,1.892
4238,1.892
4239,1.888
4240,1.888
4241,1.888
4242,1.888
4243,1.884
4244,1.884
4245,1.884
4246,1.884
4247,1.881
4248,1.881
4249,1.881
4250,1.881
4251,1.881
4252,1.877
4253,1.874
4254,1.874
4255,1.874
4256,1.874
4257,1.877
4258,1.877
4259,1.881
4260,1.881
4261,1.877
4262,1.874
4263,1.874
4264,1.87
4265,1.874
4266,1.877
4267,1.881
4268,1.888
4269,1.892
4270,1.899
4271,1.895
4272,1.899
4273,1.895
4274,1.895
4275,1.888
4276,1.888
4277,1.884
4278,1.881
4279,1.877
4280,1.877
4281,1.877
4282,1.874
4283,1.87
4284,1.866
4285,1.866
4286,1.866
4287,1.866
4288,1.87
4289,1.87
4290,1.87
4291,1.866
4292,1.866
4293,1.859
4294,1.855
4295,1.855
4296,1.852
4297,1.852
4298,1.855
4299,1.855
4300,1.859
4301,1.855
4302,1.852
4303,1.855
4304,1.852
4305,1.855
4306,1.855
4307,1.863
4308,1.87
4309,1.881
4310,1.888
4311,1.895
4312,1.899
4313,1.906
4314,1.906
4315,1.906
4316,1.906
4317,1.91
4318,1.906
4319,1.902
4320,1.899
4321,1.899
4322,1.902
4323,1.91
4324,1.921
4325,1.924
4326,1.928
4327,1.928
4328,1.928
4329,1.924
4330,1.924
4331,1.921
4332,1.917
4333,1.913
4334,1.906
4335,1.902
4336,1.888
4337,1.881
4338,1.874
4339,1.87
4340,1.866
4341,1.866
4342,1.866
4343,1.87
4344,1.874
4345,1.881
4346,1.888
4347,1.884
4348,1.888
4349,1.884
4350,1.881
4351,1.877
4352,1.87
4353,1.866
4354,1.866
4355,1.866
4356,1.866
4357,1.866
4358,1.863
4359,1.863
4360,1.859
4361,1.855
4362,1.855
4363,1.855
4364,1.855
4365,1.859
4366,1.859
4367,1.859
4368,1.852
4369,1.837
4370,1.816
4371,1.787
4372,1.754
4373,1.722
4374,1.693
4375,1.664
4376,1.631
4377,1.595
4378,1.559
4379,1.512
4380,1.454
4381,1.389
4382,1.331
4383,1.298
4384,1.295
4385,1.335
4386,1.396
4387,1.45
4388,1.468
4389,1.45
4390,1.414
4391,1.411
4392,1.479
4393,1.624
4394,1.823
4395,2.047
4396,2.289
4397,2.517
4398,2.695
4399,2.799
4400,2.828
4401,2.785
4402,2.695
4403,2.575
4404,2.434
4405,2.289
4406,2.152
4407,2.036
4408,1.946
4409,1.881
4410,1.837
4411,1.816
4412,1.805
4413,1.801
4414,1.801
4415,1.805
4416,1.808
4417,1.808
4418,1.808
4419,1.808
4420,1.808
4421,1.808
4422,1.808
4423,1.808
4424,1.808
4425,1.808
4426,1.808
4427,1.805
4428,1.805
4429,1.801
4430,1.801
4431,1.805
4432,1.808
4433,1.808
4434,1.812
4435,1.812
4436,1.819
4437,1.823
4438,1.826
4439,1.83
4440,1.83
4441,1.826
4442,1.823
4443,1.819
4444,1.812
4445,1.812
4446,1.816
4447,1.816
4448,1.819
4449,1.819
4450,1.819
4451,1.819
4452,1.819
4453,1.816
4454,1.816
4455,1.816
4456,1.812
4457,1.816
4458,1.816
4459,1.819
4460,1.819
4461,1.823
4462,1.823
4463,1.823
4464,1.826
4465,1.83
4466,1.83
4467,1.83
4468,1.834
4469,1.83
4470,1.83
4471,1.826
4472,1.826
4473,1.823
4474,1.823
4475,1.823
4476,1.83
4477,1.826
4478,1.826
4479,1.823
4480,1.823
4481,1.823
4482,1.823
4483,1.826
4484,1.83
4485,1.834
4486,1.841
4487,1.841
4488,1.841
4489,1.841
4490,1.837
4491,1.837
4492,1.837
4493,1.841
4494,1.841
4495,1.845
4496,1.845
4497,1.852
4498,1.855
4499,1.855
4500,1.855
4501,1.859
4502,1.855
4503,1.855
4504,1.855
4505,1.855
4506,1.859
4507,1.863
4508,1.87
4509,1.874
4510,1.877
4511,1.881
4512,1.881
4513,1.881
4514,1.884
4515,1.884
4516,1.884
4517,1.888
4518,1.892
4519,1.895
4520,1.895
4521,1.892
4522,1.892
4523,1.895
4524,1.899
4525,1.902
4526,1.906
4527,1.913
4528,1.917
4529,1.924
4530,1.928
4531,1.924
4532,1.924
4533,1.924
4534,1.924
4535,1.924
4536,1.921
4537,1.921
4538,1.921
4539,1.921
4540,1.921
4541,1.921
4542,1.917
4543,1.917
4544,1.91
4545,1.902
4546,1.888
4547,1.877
4548,1.863
4549,1.852
4550,1.845
4551,1.837
4552,1.83
4553,1.823
4554,1.816
4555,1.812
4556,1.808
4557,1.805
4558,1.801
4559,1.794
4560,1.79
4561,1.783
4562,1.776
4563,1.769
4564,1.761
4565,1.758
4566,1.758
4567,1.758
4568,1.761
4569,1.769
4570,1.776
4571,1.779
4572,1.783
4573,1.783
4574,1.783
4575,1.783
4576,1.783
4577,1.787
4578,1.79
4579,1.79
4580,1.794
4581,1.801
4582,1.805
4583,1.808
4584,1.812
4585,1.805
4586,1.801
4587,1.801
4588,1.801
4589,1.805
4590,1.805
4591,1.808
4592,1.808
4593,1.808
4594,1.805
4595,1.805
4596,1.801
4597,1.801
4598,1.798
4599,1.798
4600,1.798
4601,1.798
4602,1.801
4603,1.801
4604,1.805
4605,1.808
4606,1.808
4607,1.808
4608,1.808
4609,1.808
4610,1.812
4611,1.812
4612,1.812
4613,1.812
4614,1.812
4615,1.812
4616,1.816
4617,1.816
4618,1.816
4619,1.816
4620,1.816
4621,1.819
4622,1.819
4623,1.819
4624,1.819
4625,1.819
4626,1.823
4627,1.826
4628,1.826
4629,1.83
4630,1.834
4631,1.837
4632,1.841
4633,1.841
4634,1.841
4635,1.837
4636,1.834
4637,1.834
4638,1.837
4639,1.834
4640,1.83
4641,1.83
4642,1.83
4643,1.834
4644,1.834
4645,1.834
4646,1.837
4647,1.837
4648,1.841
4649,1.841
4650,1.845
4651,1.848
4652,1.848
4653,1.845
4654,1.848
4655,1.848
4656,1.852
4657,1.855
4658,1.855
4659,1.859
4660,1.859
4661,1.855
4662,1.855
4663,1.855
4664,1.855
4665,1.855
4666,1.855
4667,1.855
4668,1.855
4669,1.859
4670,1.866
4671,1.866
4672,1.866
4673,1.87
4674,1.87
4675,1.874
4676,1.874
4677,1.877
4678,1.881
4679,1.881
4680,1.881
4681,1.881
4682,1.881
4683,1.877
4684,1.874
4685,1.87
4686,1.87
4687,1.87
4688,1.87
4689,1.87
4690,1.87
4691,1.87
4692,1.874
4693,1.874
4694,1.877
4695,1.881
4696,1.884
4697,1.884
4698,1.884
4699,1.884
4700,1.888
4701,1.888
4702,1.888
4703,1.888
4704,1.888
4705,1.888
4706,1.888
4707,1.884
4708,1.881
4709,1.881
4710,1.877
4711,1.877
4712,1.874
4713,1.877
4714,1.881
4715,1.884
4716,1.884
4717,1.888
4718,1.888
4719,1.888
4720,1.884
4721,1.884
4722,1.884
4723,1.881
4724,1.877
4725,1.874
4726,1.874
4727,1.874
4728,1.874
4729,1.87
4730,1.87
4731,1.874
4732,1.87
4733,1.87
4734,1.87
4735,1.874
4736,1.874
4737,1.874
4738,1.874
4739,1.874
4740,1.874
4741,1.877
4742,1.874
4743,1.874
4744,1.874
4745,1.877
4746,1.877
4747,1.877
4748,1.877
4749,1.877
4750,1.881
4751,1.881
4752,1.881
4753,1.881
4754,1.881
4755,1.881
4756,1.881
4757,1.884
4758,1.881
4759,1.881
4760,1.881
4761,1.881
4762,1.881
4763,1.881
4764,1.877
4765,1.877
4766,1.874
4767,1.874
4768,1.877
4769,1.874
4770,1.87
4771,1.87
4772,1.87
4773,1.874
4774,1.874
4775,1.874
4776,1.874
4777,1.874
4778,1.877
4779,1.881
4780,1.877
4781,1.881
4782,1.881
4783,1.881
4784,1.884
4785,1.888
4786,1.888
4787,1.888
4788,1.884
4789,1.881
4790,1.877
4791,1.874
4792,1.874
4793,1.877
4794,1.877
4795,1.877
4796,1.877
4797,1.877
4798,1.877
4799,1.877
4800,1.877
4801,1.877
4802,1.877
4803,1.877
4804,1.874
4805,1.874
4806,1.87
4807,1.87
4808,1.874
4809,1.874
4810,1.877
4811,1.881
4812,1.881
4813,1.881
4814,1.881
4815,1.881
4816,1.881
4817,1.881
4818,1.881
4819,1.881
4820,1.877
4821,1.877
4822,1.881
4823,1.884
4824,1.884
4825,1.884
4826,1.884
4827,1.881
4828,1.877
4829,1.877
4830,1.874
4831,1.874
4832,1.874
4833,1.874
4834,1.866
4835,1.863
4836,1.859
4837,1.863
4838,1.863
4839,1.866
4840,1.866
4841,1.87
4842,1.87
4843,1.874
4844,1.874
4845,1.877
4846,1.881
4847,1.884
4848,1.888
4849,1.895
4850,1.902
4851,1.906
4852,1.913
4853,1.917
4854,1.928
4855,1.931
4856,1.939
4857,1.946
4858,1.953
4859,1.96
4860,1.964
4861,1.96
4862,1.96
4863,1.96
4864,1.96
4865,1.96
4866,1.964
4867,1.964
4868,1.968
4869,1.968
4870,1.964
4871,1.96
4872,1.96
4873,1.957
4874,1.953
4875,1.946
4876,1.942
4877,1.935
4878,1.931
4879,1.924
4880,1.921
4881,1.913
4882,1.91
4883,1.906
4884,1.902
4885,1.902
4886,1.902
4887,1.902
4888,1.902
4889,1.902
4890,1.902
4891,1.902
4892,1.902
4893,1.902
4894,1.902
4895,1.899
4896,1.895
4897,1.895
4898,1.892
4899,1.888
4900,1.888
4901,1.888
4902,1.888
4903,1.888
4904,1.892
4905,1.892
4906,1.892
4907,1.888
4908,1.888
4909,1.881
4910,1.87
4911,1.855
4912,1.826
4913,1.794
4914,1.761
4915,1.729
4916,1.7
4917,1.664
4918,1.631
4919,1.595
4920,1.552
4921,1.501
4922,1.436
4923,1.367
4924,1.313
4925,1.298
4926,1.331
4927,1.389
4928,1.454
4929,1.494
4930,1.508
4931,1.494
4932,1.497
4933,1.566
4934,1.714
4935,1.917
4936,2.148
4937,2.394
4938,2.622
4939,2.799
4940,2.904
4941,2.926
4942,2.879
4943,2.778
4944,2.64
4945,2.481
4946,2.322
4947,2.17
4948,2.051
4949,1.96
4950,1.899
4951,1.866
4952,1.845
4953,1.834
4954,1.83
4955,1.834
4956,1.837
4957,1.841
4958,1.845
4959,1.845
4960,1.848
4961,1.852
4962,1.852
4963,1.848
4964,1.848
4965,1.845
4966,1.841
4967,1.841
4968,1.841
4969,1.841
4970,1.837
4971,1.837
4972,1.837
4973,1.841
4974,1.841
4975,1.845
4976,1.845
4977,1.841
4978,1.845
4979,1.845
4980,1.845
4981,1.841
4982,1.841
4983,1.841
4984,1.841
4985,1.837
4986,1.837
4987,1.841
4988,1.841
4989,1.845
4990,1.845
4991,1.848
4992,1.852
4993,1.852
4994,1.852
4995,1.855
4996,1.852
4997,1.852
4998,1.852
4999,1.852
5000,1.855
5001,1.852
5002,1.852
5003,1.852
5004,1.852
5005,1.852
5006,1.855
5007,1.852
5008,1.855
5009,1.855
5010,1.859
5011,1.863
5012,1.863
5013,1.866
5014,1.87
5015,1.87
5016,1.874
5017,1.87
5018,1.87
5019,1.87
5020,1.866
5021,1.863
5022,1.859
5023,1.859
5024,1.859
5025,1.859
5026,1.866
5027,1.87
5028,1.87
5029,1.87
5030,1.866
5031,1.863
5032,1.859
5033,1.859
5034,1.863
5035,1.863
5036,1.866
5037,1.87
5038,1.87
5039,1.87
5040,1.87
5041,1.87
5042,1.87
5043,1.87
5044,1.874
5045,1.874
5046,1.874
5047,1.877
5048,1.884
5049,1.888
5050,1.888
5051,1.888
5052,1.892
5053,1.892
5054,1.892
5055,1.888
5056,1.892
5057,1.892
5058,1.895
5059,1.895
5060,1.902
5061,1.902
5062,1.906
5063,1.91
5064,1.91
5065,1.91
5066,1.91
5067,1.913
5068,1.917
5069,1.921
5070,1.931
5071,1.935
5072,1.935
5073,1.939
5074,1.939
5075,1.942
5076,1.946
5077,1.946
5078,1.946
5079,1.946
5080,1.942
5081,1.939
5082,1.935
5083,1.928
5084,1.924
5085,1.921
5086,1.917
5087,1.91
5088,1.906
5089,1.902
5090,1.899
5091,1.892
5092,1.884
5093,1.877
5094,1.87
5095,1.863
5096,1.859
5097,1.855
5098,1.852
5099,1.845
5100,1.841
5101,1.837
5102,1.834
5103,1.834
5104,1.83
5105,1.826
5106,1.826
5107,1.83
5108,1.834
5109,1.837
5110,1.841
5111,1.845
5112,1.845
5113,1.845
5114,1.848
5115,1.845
5116,1.845
5117,1.845
5118,1.845
5119,1.845
5120,1.845
5121,1.845
5122,1.845
5123,1.845
5124,1.845
5125,1.841
5126,1.841
5127,1.845
5128,1.848
5129,1.848
5130,1.848
5131,1.848
5132,1.848
5133,1.848
5134,1.848
5135,1.852
5136,1.848
5137,1.848
5138,1.848
5139,1.848
5140,1.845
5141,1.837
5142,1.834
5143,1.83
5144,1.83
5145,1.826
5146,1.83
5147,1.83
5148,1.83
5149,1.834
5150,1.834
5151,1.83
5152,1.83
5153,1.83
5154,1.83
5155,1.83
5156,1.826
5157,1.83
5158,1.83
5159,1.83
5160,1.826
5161,1.823
5162,1.819
5163,1.816
5164,1.819
5165,1.819
5166,1.823
5167,1.826
5168,1.834
5169,1.834
5170,1.834
5171,1.83
5172,1.826
5173,1.823
5174,1.826
5175,1.83
5176,1.834
5177,1.837
5178,1.837
5179,1.837
5180,1.834
5181,1.834
5182,1.834
5183,1.834
5184,1.834
5185,1.837
5186,1.841
5187,1.845
5188,1.845
5189,1.852
5190,1.855
5191,1.859
5192,1.863
5193,1.866
5194,1.874
5195,1.874
5196,1.877
5197,1.877
5198,1.877
5199,1.881
5200,1.884
5201,1.884
5202,1.884
5203,1.888
5204,1.888
5205,1.888
5206,1.892
5207,1.892
5208,1.888
5209,1.892
5210,1.892
5211,1.895
5212,1.892
5213,1.895
5214,1.899
5215,1.899
5216,1.899
5217,1.895
5218,1.895
5219,1.892
5220,1.892
5221,1.892
5222,1.895
5223,1.892
5224,1.895
5225,1.902
5226,1.906
5227,1.906
5228,1.906
5229,1.906
5230,1.906
5231,1.902
5232,1.899
5233,1.895
5234,1.892
5235,1.888
5236,1.884
5237,1.884
5238,1.884
5239,1.881
5240,1.881
5241,1.881
5242,1.877
5243,1.881
5244,1.888
5245,1.884
5246,1.884
5247,1.884
5248,1.884
5249,1.881
5250,1.877
5251,1.87
5252,1.87
5253,1.87
5254,1.87
5255,1.87
5256,1.866
5257,1.866
5258,1.863
5259,1.859
5260,1.859
5261,1.859
5262,1.855
5263,1.855
5264,1.852
5265,1.852
5266,1.852
5267,1.852
5268,1.852
5269,1.852
5270,1.855
5271,1.855
5272,1.855
5273,1.852
5274,1.852
5275,1.852
5276,1.855
5277,1.855
5278,1.855
5279,1.855
5280,1.855
5281,1.859
5282,1.859
5283,1.863
5284,1.863
5285,1.863
5286,1.859
5287,1.859
5288,1.855
5289,1.855
5290,1.855
5291,1.855
5292,1.855
5293,1.855
5294,1.859
5295,1.859
5296,1.863
5297,1.863
5298,1.863
5299,1.863
5300,1.863
5301,1.866
5302,1.866
5303,1.866
5304,1.863
5305,1.863
5306,1.859
5307,1.863
5308,1.866
5309,1.866
5310,1.87
5311,1.87
5312,1.87
5313,1.87
5314,1.866
5315,1.866
5316,1.863
5317,1.866
5318,1.866
5319,1.87
5320,1.87
5321,1.87
5322,1.87
5323,1.866
5324,1.866
5325,1.863
5326,1.859
5327,1.859
5328,1.859
5329,1.863
5330,1.866
5331,1.87
5332,1.874
5333,1.877
5334,1.881
5335,1.884
5336,1.884
5337,1.884
5338,1.884
5339,1.884
5340,1.884
5341,1.892
5342,1.888
5343,1.888
5344,1.892
5345,1.895
5346,1.895
5347,1.895
5348,1.892
5349,1.892
5350,1.895
5351,1.895
5352,1.899
5353,1.895
5354,1.895
5355,1.892
5356,1.892
5357,1.892
5358,1.895
5359,1.895
5360,1.895
5361,1.895
5362,1.895
5363,1.892
5364,1.884
5365,1.881
5366,1.877
5367,1.877
5368,1.877
5369,1.877
5370,1.877
5371,1.877
5372,1.877
5373,1.881
5374,1.877
5375,1.874
5376,1.874
5377,1.874
5378,1.874
5379,1.874
5380,1.874
5381,1.87
5382,1.866
5383,1.863
5384,1.863
5385,1.863
5386,1.863
5387,1.863
5388,1.863
5389,1.859
5390,1.855
5391,1.852
5392,1.848
5393,1.848
5394,1.845
5395,1.845
5396,1.845
5397,1.845
5398,1.848
5399,1.852
5400,1.855
5401,1.863
5402,1.87
5403,1.877
5404,1.881
5405,1.888
5406,1.899
5407,1.902
5408,1.906
5409,1.906
5410,1.91
5411,1.91
5412,1.917
5413,1.917
5414,1.917
5415,1.917
5416,1.917
5417,1.917
5418,1.921
5419,1.924
5420,1.931
5421,1.935
5422,1.935
5423,1.939
5424,1.931
5425,1.928
5426,1.921
5427,1.917
5428,1.91
5429,1.902
5430,1.899
5431,1.895
5432,1.892
5433,1.888
5434,1.888
5435,1.884
5436,1.881
5437,1.881
5438,1.881
5439,1.877
5440,1.877
5441,1.877
5442,1.877
5443,1.877
5444,1.877
5445,1.877
5446,1.877
5447,1.874
5448,1.874
5449,1.874
5450,1.874
5451,1.874
5452,1.874
5453,1.874
5454,1.874
5455,1.87
5456,1.87
5457,1.866
5458,1.866
5459,1.866
5460,1.866
5461,1.859
5462,1.852
5463,1.841
5464,1.823
5465,1.794
5466,1.761
5467,1.732
5468,1.707
5469,1.678
5470,1.646
5471,1.613
5472,1.57
5473,1.523
5474,1.461
5475,1.396
5476,1.338
5477,1.309
5478,1.327
5479,1.382
5480,1.45
5481,1.512
5482,1.552
5483,1.562
5484,1.573
5485,1.635
5486,1.765
5487,1.964
5488,2.188
5489,2.43
5490,2.658
5491,2.843
5492,2.959
5493,2.98
5494,2.937
5495,2.832
5496,2.687
5497,2.521
5498,2.355
5499,2.203
5500,2.076
5501,1.982
5502,1.917
5503,1.881
5504,1.855
5505,1.848
5506,1.845
5507,1.852
5508,1.855
5509,1.859
5510,1.863
5511,1.866
5512,1.866
5513,1.866
5514,1.866
5515,1.863
5516,1.863
5517,1.859
5518,1.859
5519,1.859
5520,1.859
5521,1.859
5522,1.859
5523,1.859
5524,1.859
5525,1.855
5526,1.855
5527,1.852
5528,1.848
5529,1.845
5530,1.845
5531,1.841
5532,1.837
5533,1.834
5534,1.834
5535,1.837
5536,1.837
5537,1.837
5538,1.837
5539,1.837
5540,1.834
5541,1.834
5542,1.83
5543,1.826
5544,1.826
5545,1.826
5546,1.83
5547,1.826
5548,1.83
5549,1.826
5550,1.823
5551,1.823
5552,1.819
5553,1.819
5554,1.819
5555,1.823
5556,1.826
5557,1.834
5558,1.834
5559,1.837
5560,1.837
5561,1.837
5562,1.834
5563,1.83
5564,1.826
5565,1.823
5566,1.823
5567,1.826
5568,1.83
5569,1.83
5570,1.83
5571,1.83
5572,1.83
5573,1.826
5574,1.826
5575,1.826
5576,1.83
5577,1.83
5578,1.83
5579,1.834
5580,1.834
5581,1.834
5582,1.834
5583,1.837
5584,1.837
5585,1.837
5586,1.837
5587,1.837
5588,1.841
5589,1.845
5590,1.848
5591,1.852
5592,1.852
5593,1.852
5594,1.848
5595,1.852
5596,1.852
5597,1.852
5598,1.855
5599,1.855
5600,1.859
5601,1.863
5602,1.863
5603,1.863
5604,1.863
5605,1.866
5606,1.874
5607,1.877
5608,1.881
5609,1.884
5610,1.888
5611,1.895
5612,1.895
5613,1.899
5614,1.902
5615,1.902
5616,1.902
5617,1.902
5618,1.906
5619,1.91
5620,1.913
5621,1.917
5622,1.924
5623,1.928
5624,1.931
5625,1.931
5626,1.935
5627,1.931
5628,1.931
5629,1.931
5630,1.931
5631,1.928
5632,1.928
5633,1.931
5634,1.928
5635,1.924
5636,1.921
5637,1.917
5638,1.906
5639,1.899
5640,1.892
5641,1.884
5642,1.874
5643,1.863
5644,1.859
5645,1.848
5646,1.841
5647,1.83
5648,1.823
5649,1.819
5650,1.812
5651,1.808
5652,1.808
5653,1.805
5654,1.805
5655,1.805
5656,1.798
5657,1.794
5658,1.79
5659,1.787
5660,1.783
5661,1.783
5662,1.783
5663,1.783
5664,1.783
5665,1.787
5666,1.783
5667,1.783
5668,1.783
5669,1.783
5670,1.783
5671,1.787
5672,1.79
5673,1.794
5674,1.798
5675,1.801
5676,1.808
5677,1.808
5678,1.808
5679,1.808
5680,1.808
5681,1.812
5682,1.808
5683,1.808
5684,1.808
5685,1.808
5686,1.812
5687,1.816
5688,1.812
5689,1.812
5690,1.812
5691,1.808
5692,1.808
5693,1.808
5694,1.808
5695,1.808
5696,1.808
5697,1.808
5698,1.808
5699,1.805
5700,1.805
5701,1.805
5702,1.805
5703,1.805
5704,1.805
5705,1.805
5706,1.801
5707,1.805
5708,1.808
5709,1.808
5710,1.812
5711,1.812
5712,1.812
5713,1.812
5714,1.812
5715,1.808
5716,1.812
5717,1.812
5718,1.812
5719,1.816
5720,1.812
5721,1.812
5722,1.816
5723,1.816
5724,1.819
5725,1.819
5726,1.819
5727,1.823
5728,1.826
5729,1.83
5730,1.834
5731,1.837
5732,1.837
5733,1.837
5734,1.841
5735,1.841
5736,1.841
5737,1.841
5738,1.841
5739,1.841
5740,1.841
5741,1.841
5742,1.841
5743,1.845
5744,1.848
5745,1.852
5746,1.855
5747,1.855
5748,1.859
5749,1.859
5750,1.859
5751,1.863
5752,1.866
5753,1.866
5754,1.866
5755,1.866
5756,1.863
5757,1.859
5758,1.855
5759,1.855
5760,1.855
5761,1.855
5762,1.859
5763,1.863
5764,1.866
5765,1.866
5766,1.866
5767,1.866
5768,1.863
5769,1.863
5770,1.863
5771,1.859
5772,1.863
5773,1.866
5774,1.866
5775,1.863
5776,1.863
5777,1.859
5778,1.859
5779,1.863
5780,1.866
5781,1.87
5782,1.874
5783,1.874
5784,1.877
5785,1.874
5786,1.866
5787,1.863
5788,1.863
5789,1.863
5790,1.863
5791,1.866
5792,1.87
5793,1.87
5794,1.87
5795,1.874
5796,1.874
5797,1.874
5798,1.877
5799,1.884
5800,1.888
5801,1.892
5802,1.895
5803,1.895
5804,1.895
5805,1.892
5806,1.892
5807,1.892
5808,1.892
5809,1.895
5810,1.895
5811,1.895
5812,1.892
5813,1.892
5814,1.892
5815,1.892
5816,1.888
5817,1.888
5818,1.884
5819,1.881
5820,1.881
5821,1.877
5822,1.877
5823,1.877
5824,1.874
5825,1.874
5826,1.87
5827,1.87
5828,1.87
5829,1.863
5830,1.863
5831,1.859
5832,1.855
5833,1.852
5834,1.848
5835,1.848
5836,1.848
5837,1.852
5838,1.859
5839,1.859
5840,1.859
5841,1.859
5842,1.859
5843,1.855
5844,1.852
5845,1.848
5846,1.848
5847,1.848
5848,1.852
5849,1.855
5850,1.852
5851,1.855
5852,1.859
5853,1.863
5854,1.863
5855,1.866
5856,1.866
5857,1.87
5858,1.874
5859,1.877
5860,1.884
5861,1.881
5862,1.884
5863,1.884
5864,1.881
5865,1.881
5866,1.881
5867,1.881
5868,1.881
5869,1.884
5870,1.884
5871,1.884
5872,1.884
5873,1.881
5874,1.881
5875,1.881
5876,1.877
5877,1.877
5878,1.874
5879,1.87
5880,1.87
5881,1.866
5882,1.866
5883,1.866
5884,1.866
5885,1.866
5886,1.863
5887,1.859
5888,1.859
5889,1.859
5890,1.859
5891,1.859
5892,1.863
5893,1.863
5894,1.863
5895,1.863
5896,1.863
5897,1.863
5898,1.866
5899,1.866
5900,1.866
5901,1.866
5902,1.863
5903,1.866
5904,1.866
5905,1.866
5906,1.863
5907,1.866
5908,1.87
5909,1.87
5910,1.874
5911,1.877
5912,1.877
5913,1.877
5914,1.877
5915,1.874
5916,1.87
5917,1.866
5918,1.863
5919,1.859
5920,1.863
5921,1.866
5922,1.87
5923,1.877
5924,1.881
5925,1.884
5926,1.884
5927,1.884
5928,1.884
5929,1.881
5930,1.877
5931,1.877
5932,1.877
5933,1.881
5934,1.884
5935,1.888
5936,1.892
5937,1.895
5938,1.899
5939,1.899
5940,1.895
5941,1.888
5942,1.884
5943,1.884
5944,1.881
5945,1.877
5946,1.877
5947,1.874
5948,1.866
5949,1.863
5950,1.859
5951,1.855
5952,1.852
5953,1.848
5954,1.845
5955,1.848
5956,1.848
5957,1.855
5958,1.855
5959,1.859
5960,1.859
5961,1.866
5962,1.87
5963,1.877
5964,1.881
5965,1.884
5966,1.888
5967,1.892
5968,1.895
5969,1.895
5970,1.895
5971,1.892
5972,1.892
5973,1.888
5974,1.888
5975,1.888
5976,1.892
5977,1.895
5978,1.902
5979,1.91
5980,1.906
5981,1.902
5982,1.895
5983,1.884
5984,1.87
5985,1.859
5986,1.845
5987,1.837
5988,1.834
5989,1.83
5990,1.834
5991,1.834
5992,1.834
5993,1.834
5994,1.837
5995,1.834
5996,1.83
5997,1.83
5998,1.83
5999,1.83
6000,1.837
6001,1.837
6002,1.841
6003,1.841
6004,1.841
6005,1.841
6006,1.837
6007,1.834
6008,1.834
6009,1.83
6010,1.834
6011,1.837
6012,1.837
6013,1.837
6014,1.837
6015,1.837
6016,1.834
6017,1.834
6018,1.826
6019,1.823
6020,1.816
6021,1.801
6022,1.783
6023,1.754
6024,1.722
6025,1.689
6026,1.657
6027,1.631
6028,1.599
6029,1.559
6030,1.519
6031,1.476
6032,1.421
6033,1.36
6034,1.302
6035,1.266
6036,1.262
6037,1.298
6038,1.353
6039,1.396
6040,1.411
6041,1.385
6042,1.342
6043,1.338
6044,1.403
6045,1.544
6046,1.74
6047,1.968
6048,2.206
6049,2.438
6050,2.619
6051,2.731
6052,2.77
6053,2.742
6054,2.666
6055,2.553
6056,2.423
6057,2.286
6058,2.156
6059,2.036
6060,1.942
6061,1.874
6062,1.819
6063,1.787
6064,1.769
6065,1.761
6066,1.761
6067,1.765
6068,1.769
6069,1.776
6070,1.779
6071,1.779
6072,1.779
6073,1.779
6074,1.776
6075,1.772
6076,1.776
6077,1.776
6078,1.779
6079,1.779
6080,1.779
6081,1.779
6082,1.779
6083,1.779
6084,1.779
6085,1.779
6086,1.779
6087,1.783
6088,1.783
6089,1.787
6090,1.787
6091,1.787
6092,1.783
6093,1.783
6094,1.783
6095,1.787
6096,1.787
6097,1.79
6098,1.794
6099,1.798
6100,1.805
6101,1.812
6102,1.819
6103,1.823
6104,1.823
6105,1.826
6106,1.826
6107,1.826
6108,1.826
6109,1.826
6110,1.826
6111,1.826
6112,1.826
6113,1.83
6114,1.834
6115,1.837
6116,1.837
6117,1.841
6118,1.841
6119,1.845
6120,1.841
6121,1.834
6122,1.834
6123,1.834
6124,1.834
6125,1.837
6126,1.837
6127,1.834
6128,1.834
6129,1.83
6130,1.83
6131,1.83
6132,1.826
6133,1.823
6134,1.823
6135,1.823
6136,1.823
6137,1.826
6138,1.826
6139,1.83
6140,1.834
6141,1.837
6142,1.834
6143,1.834
6144,1.834
6145,1.834
6146,1.834
6147,1.837
6148,1.841
6149,1.841
6150,1.845
6151,1.841
6152,1.845
6153,1.845
6154,1.845
6155,1.845
6156,1.848
6157,1.852
6158,1.859
6159,1.863
6160,1.87
6161,1.874
6162,1.877
6163,1.881
6164,1.877
6165,1.874
6166,1.874
6167,1.874
6168,1.874
6169,1.881
6170,1.888
6171,1.895
6172,1.902
6173,1.91
6174,1.917
6175,1.917
6176,1.921
6177,1.924
6178,1.928
6179,1.928
6180,1.931
6181,1.939
6182,1.942
6183,1.942
6184,1.942
6185,1.942
6186,1.939
6187,1.939
6188,1.939
6189,1.931
6190,1.928
6191,1.924
6192,1.921
6193,1.917
6194,1.913
6195,1.906
6196,1.895
6197,1.888
6198,1.877
6199,1.866
6200,1.859
6201,1.848
6202,1.841
6203,1.834
6204,1.826
6205,1.819
6206,1.812
6207,1.801
6208,1.794
6209,1.79
6210,1.783
6211,1.779
6212,1.779
6213,1.776
6214,1.772
6215,1.769
6216,1.765
6217,1.765
6218,1.761
6219,1.761
6220,1.765
6221,1.769
6222,1.772
6223,1.779
6224,1.783
6225,1.79
6226,1.79
6227,1.794
6228,1.794
6229,1.79
6230,1.79
6231,1.794
6232,1.798
6233,1.801
6234,1.805
6235,1.812
6236,1.823
6237,1.83
6238,1.837
6239,1.845
6240,1.845
6241,1.845
6242,1.848
6243,1.845
6244,1.841
6245,1.837
6246,1.837
6247,1.834
6248,1.834
6249,1.834
6250,1.834
6251,1.837
6252,1.841
6253,1.845
6254,1.845
6255,1.845
6256,1.845
6257,1.841
6258,1.841
6259,1.837
6260,1.837
6261,1.83
6262,1.826
6263,1.823
6264,1.823
6265,1.823
6266,1.819
6267,1.819
6268,1.819
6269,1.819
6270,1.819
6271,1.819
6272,1.816
6273,1.816
6274,1.816
6275,1.816
6276,1.812
6277,1.812
6278,1.812
6279,1.812
6280,1.812
6281,1.816
6282,1.819
6283,1.816
6284,1.816
6285,1.816
6286,1.816
6287,1.816
6288,1.816
6289,1.816
6290,1.812
6291,1.816
6292,1.819
6293,1.819
6294,1.819
6295,1.819
6296,1.823
6297,1.823
6298,1.826
6299,1.83
6300,1.83
6301,1.834
6302,1.834
6303,1.834
6304,1.834
6305,1.83
6306,1.83
6307,1.826
6308,1.826
6309,1.826
6310,1.826
6311,1.83
6312,1.834
6313,1.834
6314,1.837
6315,1.837
6316,1.841
6317,1.841
6318,1.845
6319,1.848
6320,1.848
6321,1.855
6322,1.859
6323,1.863
6324,1.866
6325,1.87
6326,1.87
6327,1.874
6328,1.877
6329,1.877
6330,1.881
6331,1.884
6332,1.884
6333,1.888
6334,1.892
6335,1.892
6336,1.892
6337,1.888
6338,1.888
6339,1.888
6340,1.892
6341,1.892
6342,1.895
6343,1.895
6344,1.892
6345,1.892
6346,1.888
6347,1.888
6348,1.888
6349,1.888
6350,1.888
6351,1.884
6352,1.884
6353,1.881
6354,1.877
6355,1.877
6356,1.877
6357,1.881
6358,1.881
6359,1.881
6360,1.884
6361,1.884
6362,1.884
6363,1.884
6364,1.884
6365,1.884
6366,1.881
6367,1.881
6368,1.881
6369,1.877
6370,1.877
6371,1.877
6372,1.877
6373,1.877
6374,1.877
6375,1.877
6376,1.881
6377,1.884
6378,1.888
6379,1.892
6380,1.888
6381,1.884
6382,1.884
6383,1.881
6384,1.881
6385,1.877
6386,1.877
6387,1.881
6388,1.881
6389,1.881
6390,1.884
6391,1.881
6392,1.881
6393,1.881
6394,1.881
6395,1.881
6396,1.884
6397,1.888
6398,1.888
6399,1.892
6400,1.892
6401,1.892
6402,1.892
6403,1.895
6404,1.895
6405,1.895
6406,1.892
6407,1.892
6408,1.892
6409,1.892
6410,1.888
6411,1.892
6412,1.895
6413,1.895
6414,1.895
6415,1.899
6416,1.899
6417,1.902
6418,1.902
6419,1.906
6420,1.906
6421,1.906
6422,1.91
6423,1.906
6424,1.906
6425,1.906
6426,1.906
6427,1.902
6428,1.902
6429,1.906
6430,1.906
6431,1.91
6432,1.91
6433,1.917
6434,1.917
6435,1.921
6436,1.921
6437,1.921
6438,1.924
6439,1.928
6440,1.928
6441,1.931
6442,1.931
6443,1.935
6444,1.939
6445,1.935
6446,1.935
6447,1.931
6448,1.931
6449,1.928
6450,1.928
6451,1.931
6452,1.931
6453,1.931
6454,1.931
6455,1.931
6456,1.928
6457,1.928
6458,1.924
6459,1.924
6460,1.924
6461,1.921
6462,1.921
6463,1.917
6464,1.91
6465,1.906
6466,1.902
6467,1.895
6468,1.895
6469,1.892
6470,1.892
6471,1.892
6472,1.892
6473,1.888
6474,1.884
6475,1.884
6476,1.881
6477,1.881
6478,1.881
6479,1.884
6480,1.888
6481,1.888
6482,1.895
6483,1.902
6484,1.91
6485,1.913
6486,1.921
6487,1.931
6488,1.931
6489,1.939
6490,1.942
6491,1.946
6492,1.946
6493,1.946
6494,1.946
6495,1.942
6496,1.942
6497,1.946
6498,1.946
6499,1.949
6500,1.953
6501,1.957
6502,1.96
6503,1.96
6504,1.96
6505,1.957
6506,1.953
6507,1.949
6508,1.942
6509,1.942
6510,1.935
6511,1.931
6512,1.924
6513,1.921
6514,1.917
6515,1.917
6516,1.913
6517,1.91
6518,1.906
6519,1.906
6520,1.906
6521,1.906
6522,1.902
6523,1.902
6524,1.906
6525,1.906
6526,1.902
6527,1.902
6528,1.902
6529,1.906
6530,1.91
6531,1.913
6532,1.91
6533,1.913
6534,1.917
6535,1.913
6536,1.913
6537,1.913
6538,1.913
6539,1.917
6540,1.913
6541,1.91
6542,1.902
6543,1.892
6544,1.877
6545,1.852
6546,1.819
6547,1.783
6548,1.754
6549,1.725
6550,1.693
6551,1.657
6552,1.617
6553,1.57
6554,1.515
6555,1.454
6556,1.385
6557,1.331
6558,1.313
6559,1.342
6560,1.403
6561,1.468
6562,1.519
6563,1.541
6564,1.534
6565,1.544
6566,1.609
6567,1.758
6568,1.968
6569,2.203
6570,2.445
6571,2.673
6572,2.846
6573,2.944
6574,2.962
6575,2.904
6576,2.792
6577,2.64
6578,2.47
6579,2.304
6580,2.152
6581,2.029
6582,1.939
6583,1.877
6584,1.845
6585,1.826
6586,1.823
6587,1.823
6588,1.83
6589,1.834
6590,1.841
6591,1.845
6592,1.848
6593,1.848
6594,1.848
6595,1.852
6596,1.848
6597,1.845
6598,1.845
6599,1.845
6600,1.841
6601,1.845
6602,1.845
6603,1.848
6604,1.848
6605,1.845
6606,1.845
6607,1.845
6608,1.845
6609,1.841
6610,1.841
6611,1.841
6612,1.845
6613,1.845
6614,1.848
6615,1.852
6616,1.859
6617,1.863
6618,1.863
6619,1.863
6620,1.866
6621,1.866
6622,1.87
6623,1.874
6624,1.874
6625,1.874
6626,1.874
6627,1.874
6628,1.874
6629,1.874
6630,1.874
6631,1.874
6632,1.87
6633,1.87
6634,1.866
6635,1.87
6636,1.87
6637,1.874
6638,1.874
6639,1.874
6640,1.866
6641,1.863
6642,1.855
6643,1.855
6644,1.852
6645,1.852
6646,1.848
6647,1.848
6648,1.848
6649,1.852
6650,1.852
6651,1.852
6652,1.855
6653,1.855
6654,1.859
6655,1.859
6656,1.859
6657,1.859
6658,1.859
6659,1.859
6660,1.859
6661,1.855
6662,1.855
6663,1.852
6664,1.855
6665,1.859
6666,1.863
6667,1.866
6668,1.87
6669,1.87
6670,1.87
6671,1.874
6672,1.874
6673,1.874
6674,1.877
6675,1.874
6676,1.877
6677,1.881
6678,1.881
6679,1.884
6680,1.884
6681,1.884
6682,1.888
6683,1.888
6684,1.895
6685,1.895
6686,1.899
6687,1.902
6688,1.906
6689,1.91
6690,1.906
6691,1.906
6692,1.906
6693,1.906
6694,1.902
6695,1.902
6696,1.906
6697,1.91
6698,1.913
6699,1.917
6700,1.921
6701,1.921
6702,1.924
6703,1.931
6704,1.931
6705,1.931
6706,1.935
6707,1.935
6708,1.935
6709,1.935
6710,1.931
6711,1.931
6712,1.928
6713,1.924
6714,1.924
6715,1.917
6716,1.91
6717,1.906
6718,1.899
6719,1.888
6720,1.881
6721,1.874
6722,1.866
6723,1.863
6724,1.855
6725,1.852
6726,1.841
6727,1.83
6728,1.823
6729,1.816
6730,1.812
6731,1.805
6732,1.801
6733,1.798
6734,1.794
6735,1.794
6736,1.801
6737,1.801
6738,1.805
6739,1.808
6740,1.808
6741,1.808
6742,1.808
6743,1.808
6744,1.808
6745,1.808
6746,1.812
6747,1.819
6748,1.819
6749,1.823
6750,1.826
6751,1.826
6752,1.83
6753,1.83
6754,1.83
6755,1.83
6756,1.83
6757,1.834
6758,1.834
6759,1.834
6760,1.834
6761,1.83
6762,1.826
6763,1.826
6764,1.826
6765,1.826
6766,1.823
6767,1.823
6768,1.826
6769,1.826
6770,1.826
6771,1.83
6772,1.834
6773,1.837
6774,1.841
6775,1.845
6776,1.845
6777,1.848
6778,1.848
6779,1.852
6780,1.848
6781,1.848
6782,1.848
6783,1.845
6784,1.841
6785,1.841
6786,1.841
6787,1.845
6788,1.848
6789,1.848
6790,1.852
6791,1.852
6792,1.852
6793,1.852
6794,1.852
6795,1.855
6796,1.855
6797,1.855
6798,1.855
6799,1.855
6800,1.855
6801,1.863
6802,1.863
6803,1.863
6804,1.859
6805,1.859
6806,1.855
6807,1.855
6808,1.855
6809,1.855
6810,1.852
6811,1.848
6812,1.841
6813,1.837
6814,1.834
6815,1.83
6816,1.83
6817,1.83
6818,1.83
6819,1.83
6820,1.83
6821,1.834
6822,1.837
6823,1.837
6824,1.837
6825,1.837
6826,1.837
6827,1.837
6828,1.837
6829,1.841
6830,1.841
6831,1.845
6832,1.841
6833,1.845
6834,1.841
6835,1.837
6836,1.834
6837,1.834
6838,1.83
6839,1.83
6840,1.834
6841,1.834
6842,1.837
6843,1.837
6844,1.841
6845,1.841
6846,1.845
6847,1.852
6848,1.852
6849,1.852
6850,1.852
6851,1.852
6852,1.848
6853,1.848
6854,1.845
6855,1.848
6856,1.848
6857,1.848
6858,1.848
6859,1.852
6860,1.855
6861,1.859
6862,1.863
6863,1.863
6864,1.863
6865,1.863
6866,1.866
6867,1.863
6868,1.859
6869,1.859
6870,1.859
6871,1.859
6872,1.859
6873,1.863
6874,1.863
6875,1.863
6876,1.863
6877,1.863
6878,1.863
6879,1.863
6880,1.866
6881,1.87
6882,1.87
6883,1.87
6884,1.87
6885,1.87
6886,1.874
6887,1.877
6888,1.874
6889,1.874
6890,1.87
6891,1.874
6892,1.874
6893,1.877
6894,1.884
6895,1.888
6896,1.892
6897,1.895
6898,1.899
6899,1.895
6900,1.895
6901,1.895
6902,1.895
6903,1.892
6904,1.895
6905,1.895
6906,1.899
6907,1.902
6908,1.902
6909,1.906
6910,1.902
6911,1.899
6912,1.899
6913,1.899
6914,1.899
6915,1.899
6916,1.899
6917,1.899
6918,1.899
6919,1.895
6920,1.899
6921,1.899
6922,1.899
6923,1.899
6924,1.899
6925,1.899
6926,1.899
6927,1.899
6928,1.899
6929,1.902
6930,1.906
6931,1.906
6932,1.906
6933,1.902
6934,1.902
6935,1.899
6936,1.895
6937,1.892
6938,1.884
6939,1.881
6940,1.881
6941,1.877
6942,1.877
6943,1.874
6944,1.874
6945,1.874
6946,1.874
6947,1.874
6948,1.87
6949,1.866
6950,1.863
6951,1.863
6952,1.863
6953,1.859
6954,1.859
6955,1.859
6956,1.863
6957,1.863
6958,1.863
6959,1.859
6960,1.859
6961,1.855
6962,1.852
6963,1.852
6964,1.855
6965,1.855
6966,1.855
6967,1.855
6968,1.855
6969,1.855
6970,1.852
6971,1.848
6972,1.845
6973,1.848
6974,1.852
6975,1.852
6976,1.855
6977,1.855
6978,1.855
6979,1.852
6980,1.852
6981,1.848
6982,1.852
6983,1.852
6984,1.852
6985,1.852
6986,1.855
6987,1.855
6988,1.852
6989,1.852
6990,1.852
6991,1.852
6992,1.852
6993,1.852
6994,1.852
6995,1.855
6996,1.855
6997,1.852
6998,1.848
6999,1.848
7000,1.852
7001,1.852
7002,1.852
7003,1.852
7004,1.852
7005,1.855
7006,1.863
7007,1.866
7008,1.87
7009,1.877
7010,1.881
7011,1.888
7012,1.895
7013,1.906
7014,1.917
7015,1.924
7016,1.928
7017,1.935
7018,1.935
7019,1.939
7020,1.942
7021,1.946
7022,1.942
7023,1.942
7024,1.942
7025,1.946
7026,1.946
7027,1.949
7028,1.957
7029,1.96
7030,1.964
7031,1.964
7032,1.96
7033,1.953
7034,1.942
7035,1.931
7036,1.924
7037,1.913
7038,1.906
7039,1.902
7040,1.895
7041,1.892
7042,1.892
7043,1.888
7044,1.888
7045,1.888
7046,1.884
7047,1.881
7048,1.881
7049,1.877
7050,1.877
7051,1.874
7052,1.874
7053,1.874
7054,1.874
7055,1.874
7056,1.874
7057,1.87
7058,1.866
7059,1.866
7060,1.866
7061,1.863
7062,1.863
7063,1.859
7064,1.859
7065,1.863
7066,1.863
7067,1.859
7068,1.855
7069,1.852
7070,1.845
7071,1.834
7072,1.819
7073,1.798
7074,1.765
7075,1.729
7076,1.696
7077,1.66
7078,1.628
7079,1.595
7080,1.559
7081,1.519
7082,1.476
7083,1.414
7084,1.349
7085,1.291
7086,1.266
7087,1.284
7088,1.338
7089,1.403
7090,1.458
7091,1.494
7092,1.501
7093,1.512
7094,1.573
7095,1.711
7096,1.917
7097,2.148
7098,2.394
7099,2.626
7100,2.814
7101,2.922
7102,2.948
7103,2.901
7104,2.796
7105,2.648
7106,2.478
7107,2.308
7108,2.148
7109,2.022
7110,1.928
7111,1.863
7112,1.826
7113,1.805
7114,1.798
7115,1.798
7116,1.798
7117,1.801
7118,1.805
7119,1.805
7120,1.808
7121,1.808
7122,1.808
7123,1.808
7124,1.812
7125,1.812
7126,1.805
7127,1.805
7128,1.801
7129,1.798
7130,1.798
7131,1.798
7132,1.798
7133,1.798
7134,1.798
7135,1.798
7136,1.801
7137,1.801
7138,1.805
7139,1.808
7140,1.808
7141,1.812
7142,1.812
7143,1.812
7144,1.812
7145,1.812
7146,1.808
7147,1.812
7148,1.812
7149,1.812
7150,1.816
7151,1.816
7152,1.819
7153,1.819
7154,1.819
7155,1.819
7156,1.819
7157,1.819
7158,1.826
7159,1.826
7160,1.83
7161,1.83
7162,1.834
7163,1.834
7164,1.837
7165,1.841
7166,1.841
7167,1.841
7168,1.845
7169,1.841
7170,1.841
7171,1.845
7172,1.845
7173,1.845
7174,1.845
7175,1.845
7176,1.841
7177,1.841
7178,1.841
7179,1.841
7180,1.841
7181,1.837
7182,1.841
7183,1.841
7184,1.841
7185,1.841
7186,1.845
7187,1.845
7188,1.845
7189,1.845
7190,1.845
7191,1.841
7192,1.841
7193,1.841
7194,1.841
7195,1.841
7196,1.845
7197,1.845
7198,1.845
7199,1.845
7200,1.845
7201,1.852
7202,1.852
7203,1.859
7204,1.859
7205,1.859
7206,1.859
7207,1.859
7208,1.859
7209,1.859
7210,1.859
7211,1.859
7212,1.866
7213,1.866
7214,1.87
7215,1.874
7216,1.877
7217,1.881
7218,1.884
7219,1.884
7220,1.888
7221,1.888
7222,1.892
7223,1.895
7224,1.895
7225,1.895
7226,1.895
7227,1.895
7228,1.899
7229,1.902
7230,1.91
7231,1.913
7232,1.917
7233,1.921
7234,1.921
7235,1.924
7236,1.924
7237,1.924
7238,1.924
7239,1.921
7240,1.921
7241,1.917
7242,1.913
7243,1.91
7244,1.906
7245,1.899
7246,1.892
7247,1.881
7248,1.874
7249,1.866
7250,1.855
7251,1.845
7252,1.834
7253,1.823
7254,1.816
7255,1.812
7256,1.808
7257,1.805
7258,1.798
7259,1.794
7260,1.787
7261,1.783
7262,1.779
7263,1.776
7264,1.772
7265,1.769
7266,1.769
7267,1.765
7268,1.765
7269,1.769
7270,1.772
7271,1.779
7272,1.783
7273,1.787
7274,1.79
7275,1.79
7276,1.79
7277,1.79
7278,1.79
7279,1.79
7280,1.79
7281,1.794
7282,1.798
7283,1.798
7284,1.801
7285,1.801
7286,1.805
7287,1.812
7288,1.812
7289,1.812
7290,1.812
7291,1.812
7292,1.816
7293,1.816
7294,1.819
7295,1.819
7296,1.823
7297,1.823
7298,1.83
7299,1.826
7300,1.83
7301,1.83
7302,1.83
7303,1.83
7304,1.83
7305,1.83
7306,1.834
7307,1.834
7308,1.837
7309,1.837
7310,1.834
7311,1.834
7312,1.83
7313,1.83
7314,1.83
7315,1.834
7316,1.834
7317,1.834
7318,1.834
7319,1.837
7320,1.841
7321,1.841
7322,1.841
7323,1.837
7324,1.837
7325,1.834
7326,1.834
7327,1.837
7328,1.837
7329,1.834
7330,1.834
7331,1.834
7332,1.83
7333,1.83
7334,1.826
7335,1.826
7336,1.823
7337,1.819
7338,1.816
7339,1.812
7340,1.816
7341,1.819
7342,1.819
7343,1.819
7344,1.816
7345,1.812
7346,1.805
7347,1.801
7348,1.798
7349,1.794
7350,1.794
7351,1.794
7352,1.794
7353,1.79
7354,1.794
7355,1.798
7356,1.798
7357,1.801
7358,1.805
7359,1.805
7360,1.808
7361,1.812
7362,1.812
7363,1.816
7364,1.816
7365,1.819
7366,1.823
7367,1.823
7368,1.826
7369,1.826
7370,1.826
7371,1.823
7372,1.823
7373,1.816
7374,1.816
7375,1.812
7376,1.812
7377,1.812
7378,1.816
7379,1.816
7380,1.819
7381,1.823
7382,1.826
7383,1.826
7384,1.83
7385,1.83
7386,1.83
7387,1.83
7388,1.83
7389,1.83
7390,1.83
7391,1.83
7392,1.83
7393,1.83
7394,1.83
7395,1.83
7396,1.83
7397,1.83
7398,1.83
7399,1.83
7400,1.83
7401,1.834
7402,1.834
7403,1.837
7404,1.841
7405,1.848
7406,1.855
7407,1.859
7408,1.859
7409,1.863
7410,1.859
7411,1.859
7412,1.863
7413,1.863
7414,1.866
7415,1.87
7416,1.87
7417,1.874
7418,1.874
7419,1.877
7420,1.877
7421,1.874
7422,1.87
7423,1.866
7424,1.866
7425,1.866
7426,1.866
7427,1.866
7428,1.87
7429,1.87
7430,1.87
7431,1.874
7432,1.874
7433,1.874
7434,1.874
7435,1.874
7436,1.87
7437,1.866
7438,1.863
7439,1.863
7440,1.863
7441,1.859
7442,1.855
7443,1.852
7444,1.852
7445,1.848
7446,1.848
7447,1.848
7448,1.848
7449,1.848
7450,1.848
7451,1.848
7452,1.848
7453,1.845
7454,1.845
7455,1.845
7456,1.845
7457,1.845
7458,1.848
7459,1.852
7460,1.855
7461,1.852
7462,1.852
7463,1.848
7464,1.848
7465,1.848
7466,1.848
7467,1.845
7468,1.845
7469,1.845
7470,1.845
7471,1.848
7472,1.848
7473,1.852
7474,1.855
7475,1.859
7476,1.863
7477,1.866
7478,1.87
7479,1.874
7480,1.877
7481,1.877
7482,1.881
7483,1.881
7484,1.877
7485,1.877
7486,1.874
7487,1.874
7488,1.874
7489,1.874
7490,1.877
7491,1.881
7492,1.884
7493,1.888
7494,1.884
7495,1.884
7496,1.884
7497,1.888
7498,1.888
7499,1.892
7500,1.895
7501,1.899
7502,1.899
7503,1.895
7504,1.895
7505,1.892
7506,1.884
7507,1.874
7508,1.866
7509,1.859
7510,1.852
7511,1.848
7512,1.845
7513,1.841
7514,1.841
7515,1.841
7516,1.841
7517,1.845
7518,1.852
7519,1.859
7520,1.863
7521,1.87
7522,1.877
7523,1.888
7524,1.895
7525,1.902
7526,1.906
7527,1.91
7528,1.913
7529,1.917
7530,1.921
7531,1.924
7532,1.921
7533,1.913
7534,1.91
7535,1.902
7536,1.899
7537,1.895
7538,1.899
7539,1.899
7540,1.906
7541,1.906
7542,1.91
7543,1.913
7544,1.913
7545,1.913
7546,1.91
7547,1.906
7548,1.895
7549,1.884
7550,1.87
7551,1.863
7552,1.855
7553,1.855
7554,1.859
7555,1.866
7556,1.87
7557,1.874
7558,1.877
7559,1.874
7560,1.874
7561,1.874
7562,1.874
7563,1.877
7564,1.874
7565,1.874
7566,1.874
7567,1.877
7568,1.877
7569,1.877
7570,1.877
7571,1.874
7572,1.87
7573,1.866
7574,1.859
7575,1.855
7576,1.855
7577,1.859
7578,1.863
7579,1.863
7580,1.863
7581,1.855
7582,1.841
7583,1.823
7584,1.798
7585,1.769
7586,1.736
7587,1.704
7588,1.671
7589,1.635
7590,1.595
7591,1.552
7592,1.508
7593,1.458
7594,1.403
7595,1.349
7596,1.309
7597,1.295
7598,1.317
7599,1.364
7600,1.414
7601,1.429
7602,1.392
7603,1.32
7604,1.27
7605,1.28
7606,1.382
7607,1.559
7608,1.783
7609,2.029
7610,2.275
7611,2.496
7612,2.658
7613,2.742
7614,2.76
7615,2.713
7616,2.622
7617,2.51
7618,2.383
7619,2.25
7620,2.123
7621,2.015
7622,1.928
7623,1.87
7624,1.83
7625,1.812
7626,1.805
7627,1.808
7628,1.812
7629,1.816
7630,1.816
7631,1.816
7632,1.812
7633,1.816
7634,1.812
7635,1.808
7636,1.808
7637,1.812
7638,1.812
7639,1.816
7640,1.816
7641,1.816
7642,1.816
7643,1.823
7644,1.83
7645,1.834
7646,1.837
7647,1.837
7648,1.837
7649,1.834
7650,1.83
7651,1.834
7652,1.837
7653,1.845
7654,1.845
7655,1.852
7656,1.848
7657,1.845
7658,1.845
7659,1.841
7660,1.845
7661,1.845
7662,1.845
7663,1.845
7664,1.848
7665,1.852
7666,1.859
7667,1.855
7668,1.855
7669,1.852
7670,1.845
7671,1.841
7672,1.841
7673,1.837
7674,1.837
7675,1.837
7676,1.841
7677,1.845
7678,1.845
7679,1.845
7680,1.845
7681,1.841
7682,1.845
7683,1.845
7684,1.841
7685,1.841
7686,1.841
7687,1.841
7688,1.841
7689,1.841
7690,1.845
7691,1.848
7692,1.848
7693,1.848
7694,1.848
7695,1.845
7696,1.845
7697,1.845
7698,1.845
7699,1.845
7700,1.845
7701,1.848
7702,1.852
7703,1.855
7704,1.855
7705,1.859
7706,1.859
7707,1.863
7708,1.866
7709,1.874
7710,1.874
7711,1.877
7712,1.881
7713,1.884
7714,1.884
7715,1.884
7716,1.884
7717,1.888
7718,1.892
7719,1.892
7720,1.892
7721,1.892
7722,1.895
7723,1.895
7724,1.899
7725,1.902
7726,1.91
7727,1.913
7728,1.921
7729,1.928
7730,1.935
7731,1.942
7732,1.942
7733,1.946
7734,1.946
7735,1.946
7736,1.949
7737,1.953
7738,1.953
7739,1.957
7740,1.957
7741,1.96
7742,1.968
7743,1.975
7744,1.982
7745,1.989
7746,1.993
7747,1.993
7748,1.993
7749,1.986
7750,1.978
7751,1.975
7752,1.971
7753,1.968
7754,1.96
7755,1.953
7756,1.946
7757,1.939
7758,1.931
7759,1.924
7760,1.917
7761,1.91
7762,1.899
7763,1.895
7764,1.881
7765,1.87
7766,1.859
7767,1.852
7768,1.845
7769,1.837
7770,1.83
7771,1.826
7772,1.823
7773,1.816
7774,1.812
7775,1.801
7776,1.798
7777,1.794
7778,1.794
7779,1.794
7780,1.794
7781,1.798
7782,1.801
7783,1.801
7784,1.805
7785,1.805
7786,1.801
7787,1.798
7788,1.798
7789,1.798
7790,1.798
7791,1.801
7792,1.805
7793,1.812
7794,1.816
7795,1.816
7796,1.819
7797,1.816
7798,1.812
7799,1.808
7800,1.808
7801,1.808
7802,1.808
7803,1.808
7804,1.808
7805,1.808
7806,1.812
7807,1.812
7808,1.808
7809,1.808
7810,1.808
7811,1.812
7812,1.816
7813,1.816
7814,1.816
7815,1.812
7816,1.816
7817,1.816
7818,1.812
7819,1.812
7820,1.808
7821,1.808
7822,1.808
7823,1.808
7824,1.808
7825,1.808
7826,1.808
7827,1.808
7828,1.812
7829,1.812
7830,1.812
7831,1.812
7832,1.812
7833,1.812
7834,1.812
7835,1.812
7836,1.812
7837,1.812
7838,1.816
7839,1.819
7840,1.819
7841,1.819
7842,1.819
7843,1.819
7844,1.819
7845,1.819
7846,1.819
7847,1.816
7848,1.816
7849,1.812
7850,1.812
7851,1.812
7852,1.816
7853,1.816
7854,1.816
7855,1.816
7856,1.816
7857,1.816
7858,1.819
7859,1.819
7860,1.823
7861,1.826
7862,1.83
7863,1.83
7864,1.837
7865,1.837
7866,1.841
7867,1.845
7868,1.848
7869,1.852
7870,1.855
7871,1.855
7872,1.859
7873,1.859
7874,1.859
7875,1.859
7876,1.859
7877,1.863
7878,1.866
7879,1.866
7880,1.863
7881,1.863
7882,1.866
7883,1.866
7884,1.87
7885,1.874
7886,1.877
7887,1.881
7888,1.881
7889,1.884
7890,1.884
7891,1.888
7892,1.888
7893,1.892
7894,1.895
7895,1.899
7896,1.902
7897,1.902
7898,1.906
7899,1.906
7900,1.906
7901,1.906
7902,1.902
7903,1.902
7904,1.902
7905,1.899
7906,1.895
7907,1.892
7908,1.892
7909,1.895
7910,1.895
7911,1.892
7912,1.888
7913,1.888
7914,1.884
7915,1.888
7916,1.888
7917,1.888
7918,1.884
7919,1.884
7920,1.881
7921,1.881
7922,1.881
7923,1.881
7924,1.881
7925,1.881
7926,1.881
7927,1.877
7928,1.874
7929,1.874
7930,1.87
7931,1.87
7932,1.866
7933,1.87
7934,1.87
7935,1.874
7936,1.877
7937,1.877
7938,1.877
7939,1.877
7940,1.877
7941,1.877
7942,1.881
7943,1.881
7944,1.881
7945,1.881
7946,1.881
7947,1.881
7948,1.881
7949,1.881
7950,1.877
7951,1.877
7952,1.877
7953,1.877
7954,1.881
7955,1.884
7956,1.888
7957,1.888
7958,1.892
7959,1.888
7960,1.888
7961,1.884
7962,1.881
7963,1.877
7964,1.874
7965,1.874
7966,1.877
7967,1.877
7968,1.877
7969,1.881
7970,1.881
7971,1.884
7972,1.888
7973,1.888
7974,1.892
7975,1.895
7976,1.899
7977,1.902
7978,1.902
7979,1.906
7980,1.91
7981,1.906
7982,1.906
7983,1.906
7984,1.902
7985,1.902
7986,1.899
7987,1.899
7988,1.899
7989,1.899
7990,1.902
7991,1.899
7992,1.899
7993,1.895
7994,1.895
7995,1.895
7996,1.895
7997,1.895
7998,1.895
7999,1.895
8000,1.892
8001,1.892
8002,1.884
8003,1.884
8004,1.884
8005,1.884
8006,1.892
8007,1.895
8008,1.899
8009,1.902
8010,1.906
8011,1.91
8012,1.913
8013,1.917
8014,1.924
8015,1.928
8016,1.931
8017,1.935
8018,1.939
8019,1.942
8020,1.949
8021,1.953
8022,1.957
8023,1.953
8024,1.946
8025,1.942
8026,1.939
8027,1.939
8028,1.939
8029,1.939
8030,1.942
8031,1.942
8032,1.942
8033,1.935
8034,1.931
8035,1.924
8036,1.917
8037,1.913
8038,1.906
8039,1.902
8040,1.899
8041,1.899
8042,1.899
8043,1.899
8044,1.902
8045,1.902
8046,1.906
8047,1.91
8048,1.913
8049,1.917
8050,1.921
8051,1.921
8052,1.924
8053,1.924
8054,1.924
8055,1.928
8056,1.924
8057,1.921
8058,1.917
8059,1.917
8060,1.913
8061,1.917
8062,1.921
8063,1.921
8064,1.924
8065,1.921
8066,1.921
8067,1.913
8068,1.91
8069,1.902
8070,1.892
8071,1.87
8072,1.845
8073,1.812
8074,1.776
8075,1.743
8076,1.711
8077,1.682
8078,1.649
8079,1.613
8080,1.573
8081,1.534
8082,1.487
8083,1.429
8084,1.382
8085,1.36
8086,1.378
8087,1.436
8088,1.501
8089,1.541
8090,1.541
8091,1.501
8092,1.461
8093,1.483
8094,1.588
8095,1.772
8096,1.996
8097,2.239
8098,2.481
8099,2.691
8100,2.828
8101,2.897
8102,2.89
8103,2.821
8104,2.709
8105,2.568
8106,2.42
8107,2.271
8108,2.141
8109,2.033
8110,1.949
8111,1.895
8112,1.866
8113,1.852
8114,1.852
8115,1.855
8116,1.859
8117,1.863
8118,1.866
8119,1.87
8120,1.87
8121,1.87
8122,1.866
8123,1.866
8124,1.866
8125,1.866
8126,1.863
8127,1.863
8128,1.866
8129,1.866
8130,1.87
8131,1.87
8132,1.874
8133,1.877
8134,1.877
8135,1.877
8136,1.877
8137,1.881
8138,1.877
8139,1.877
8140,1.877
8141,1.877
8142,1.881
8143,1.881
8144,1.884
8145,1.884
8146,1.888
8147,1.888
8148,1.884
8149,1.881
8150,1.874
8151,1.87
8152,1.87
8153,1.866
8154,1.863
8155,1.859
8156,1.855
8157,1.855
8158,1.855
8159,1.855
8160,1.859
8161,1.855
8162,1.855
8163,1.855
8164,1.852
8165,1.848
8166,1.845
8167,1.845
8168,1.845
8169,1.841
8170,1.841
8171,1.841
8172,1.841
8173,1.841
8174,1.845
8175,1.845
8176,1.845
8177,1.845
8178,1.845
8179,1.845
8180,1.848
8181,1.852
8182,1.852
8183,1.855
8184,1.855
8185,1.855
8186,1.855
8187,1.859
8188,1.855
8189,1.852
8190,1.852
8191,1.852
8192,1.852
8193,1.852
8194,1.859
8195,1.863
8196,1.87
8197,1.87
8198,1.87
8199,1.87
8200,1.87
8201,1.874
8202,1.877
8203,1.881
8204,1.884
8205,1.892
8206,1.895
8207,1.899
8208,1.899
8209,1.899
8210,1.902
8211,1.902
8212,1.906
8213,1.906
8214,1.91
8215,1.91
8216,1.913
8217,1.921
8218,1.928
8219,1.928
8220,1.935
8221,1.935
8222,1.935
8223,1.939
8224,1.942
8225,1.946
8226,1.949
8227,1.953
8228,1.957
8229,1.957
8230,1.957
8231,1.957
8232,1.96
8233,1.964
8234,1.964
8235,1.968
8236,1.968
8237,1.96
8238,1.957
8239,1.953
8240,1.942
8241,1.935
8242,1.928
8243,1.921
8244,1.913
8245,1.906
8246,1.899
8247,1.892
8248,1.888
8249,1.877
8250,1.874
8251,1.866
8252,1.855
8253,1.848
8254,1.841
8255,1.83
8256,1.823
8257,1.816
8258,1.808
8259,1.805
8260,1.801
8261,1.801
8262,1.801
8263,1.801
8264,1.801
8265,1.805
8266,1.805
8267,1.808
8268,1.812
8269,1.816
8270,1.819
8271,1.826
8272,1.83
8273,1.834
8274,1.837
8275,1.841
8276,1.845
8277,1.848
8278,1.848
8279,1.852
8280,1.855
8281,1.855
8282,1.863
8283,1.859
8284,1.863
8285,1.863
8286,1.866
8287,1.866
8288,1.866
8289,1.863
8290,1.859
8291,1.859
8292,1.859
8293,1.863
8294,1.863
8295,1.863
8296,1.863
8297,1.866
8298,1.866
8299,1.866
8300,1.866
8301,1.866
8302,1.863
8303,1.855
8304,1.859
8305,1.852
8306,1.852
8307,1.848
8308,1.845
8309,1.845
8310,1.837
8311,1.837
8312,1.834
8313,1.83
8314,1.83
8315,1.826
8316,1.819
8317,1.819
8318,1.819
8319,1.823
8320,1.823
8321,1.823
8322,1.823
8323,1.819
8324,1.819
8325,1.816
8326,1.816
8327,1.812
8328,1.812
8329,1.808
8330,1.808
8331,1.808
8332,1.812
8333,1.812
8334,1.816
8335,1.819
8336,1.819
8337,1.819
8338,1.819
8339,1.816
8340,1.816
8341,1.812
8342,1.812
8343,1.812
8344,1.816
8345,1.816
8346,1.819
8347,1.823
8348,1.823
8349,1.826
8350,1.826
8351,1.826
8352,1.826
8353,1.83
8354,1.83
8355,1.83
8356,1.834
8357,1.837
8358,1.845
8359,1.845
8360,1.848
8361,1.852
8362,1.855
8363,1.855
8364,1.859
8365,1.859
8366,1.863
8367,1.863
8368,1.866
8369,1.874
8370,1.874
8371,1.877
8372,1.881
8373,1.884
8374,1.884
8375,1.884
8376,1.881
8377,1.881
8378,1.877
8379,1.874
8380,1.874
8381,1.87
8382,1.866
8383,1.866
8384,1.866
8385,1.863
8386,1.863
8387,1.863
8388,1.863
8389,1.863
8390,1.863
8391,1.863
8392,1.859
8393,1.859
8394,1.859
8395,1.859
8396,1.855
8397,1.855
8398,1.855
8399,1.859
8400,1.859
8401,1.863
8402,1.863
8403,1.863
8404,1.866
8405,1.866
8406,1.866
8407,1.866
8408,1.866
8409,1.866
8410,1.866
8411,1.866
8412,1.87
8413,1.866
8414,1.866
8415,1.863
8416,1.863
8417,1.859
8418,1.859
8419,1.859
8420,1.859
8421,1.859
8422,1.863
8423,1.87
8424,1.874
8425,1.877
8426,1.881
8427,1.884
8428,1.888
8429,1.892
8430,1.892
8431,1.892
8432,1.895
8433,1.895
8434,1.899
8435,1.895
8436,1.895
8437,1.892
8438,1.892
8439,1.888
8440,1.888
8441,1.888
8442,1.884
8443,1.884
8444,1.884
8445,1.881
8446,1.877
8447,1.877
8448,1.874
8449,1.87
8450,1.866
8451,1.863
8452,1.863
8453,1.859
8454,1.859
8455,1.859
8456,1.855
8457,1.855
8458,1.855
8459,1.855
8460,1.855
8461,1.855
8462,1.855
8463,1.855
8464,1.852
8465,1.852
8466,1.852
8467,1.848
8468,1.848
8469,1.848
8470,1.848
8471,1.848
8472,1.848
8473,1.848
8474,1.848
8475,1.848
8476,1.852
8477,1.852
8478,1.852
8479,1.852
8480,1.852
8481,1.852
8482,1.852
8483,1.852
8484,1.852
8485,1.852
8486,1.852
8487,1.848
8488,1.848
8489,1.845
8490,1.841
8491,1.841
8492,1.841
8493,1.837
8494,1.841
8495,1.841
8496,1.845
8497,1.848
8498,1.848
8499,1.848
8500,1.848
8501,1.845
8502,1.845
8503,1.848
8504,1.852
8505,1.855
8506,1.859
8507,1.866
8508,1.87
8509,1.881
8510,1.888
8511,1.895
8512,1.899
8513,1.906
8514,1.91
8515,1.913
8516,1.917
8517,1.917
8518,1.917
8519,1.913
8520,1.91
8521,1.906
8522,1.906
8523,1.91
8524,1.913
8525,1.921
8526,1.928
8527,1.931
8528,1.939
8529,1.939
8530,1.939
8531,1.939
8532,1.928
8533,1.921
8534,1.91
8535,1.906
8536,1.902
8537,1.899
8538,1.895
8539,1.895
8540,1.892
8541,1.888
8542,1.888
8543,1.884
8544,1.881
8545,1.877
8546,1.877
8547,1.874
8548,1.87
8549,1.87
8550,1.87
8551,1.866
8552,1.866
8553,1.863
8554,1.859
8555,1.859
8556,1.855
8557,1.855
8558,1.852
8559,1.848
8560,1.848
8561,1.848
8562,1.845
8563,1.848
8564,1.848
8565,1.841
8566,1.837
8567,1.83
8568,1.819
8569,1.805
8570,1.787
8571,1.758
8572,1.729
8573,1.696
8574,1.664
8575,1.628
8576,1.591
8577,1.552
8578,1.505
8579,1.45
8580,1.385
8581,1.309
8582,1.244
8583,1.215
8584,1.237
8585,1.298
8586,1.367
8587,1.432
8588,1.472
8589,1.483
8590,1.501
8591,1.57
8592,1.722
8593,1.939
8594,2.185
8595,2.438
8596,2.68
8597,2.857
8598,2.955
8599,2.966
8600,2.901
8601,2.778
8602,2.619
8603,2.441
8604,2.268
8605,2.116
8606,2.0
8607,1.917
8608,1.859
8609,1.83
8610,1.819
8611,1.819
8612,1.823
8613,1.826
8614,1.83
8615,1.834
8616,1.837
8617,1.841
8618,1.845
8619,1.845
8620,1.845
8621,1.845
8622,1.845
8623,1.841
8624,1.841
8625,1.841
8626,1.841
8627,1.841
8628,1.845
8629,1.841
8630,1.841
8631,1.841
8632,1.837
8633,1.834
8634,1.83
8635,1.83
8636,1.826
8637,1.819
8638,1.819
8639,1.816
8640,1.816
8641,1.812
8642,1.812
8643,1.816
8644,1.819
8645,1.819
8646,1.819
8647,1.819
8648,1.819
8649,1.819
8650,1.819
8651,1.819
8652,1.819
8653,1.819
8654,1.816
8655,1.812
8656,1.812
8657,1.816
8658,1.816
8659,1.812
8660,1.812
8661,1.812
8662,1.808
8663,1.808
8664,1.808
8665,1.808
8666,1.808
8667,1.808
8668,1.812
8669,1.816
8670,1.816
8671,1.816
8672,1.819
8673,1.819
8674,1.819
8675,1.816
8676,1.816
8677,1.819
8678,1.819
8679,1.819
8680,1.823
8681,1.826
8682,1.834
8683,1.837
8684,1.841
8685,1.845
8686,1.848
8687,1.852
8688,1.852
8689,1.855
8690,1.859
8691,1.863
8692,1.866
8693,1.87
8694,1.866
8695,1.866
8696,1.87
8697,1.874
8698,1.877
8699,1.877
8700,1.881
8701,1.884
8702,1.884
8703,1.884
8704,1.888
8705,1.884
8706,1.884
8707,1.888
8708,1.888
8709,1.892
8710,1.895
8711,1.895
8712,1.892
8713,1.892
8714,1.892
8715,1.895
8716,1.895
8717,1.895
8718,1.899
8719,1.899
8720,1.899
8721,1.899
8722,1.902
8723,1.902
8724,1.902
8725,1.906
8726,1.91
8727,1.91
8728,1.91
8729,1.913
8730,1.913
8731,1.917
8732,1.917
8733,1.917
8734,1.913
8735,1.913
8736,1.91
8737,1.902
8738,1.899
8739,1.892
8740,1.888
8741,1.881
8742,1.874
8743,1.863
8744,1.852
8745,1.841
8746,1.834
8747,1.826
8748,1.819
8749,1.812
8750,1.805
8751,1.798
8752,1.794
8753,1.787
8754,1.779
8755,1.772
8756,1.769
8757,1.761
8758,1.761
8759,1.758
8760,1.758
8761,1.758
8762,1.761
8763,1.765
8764,1.769
8765,1.772
8766,1.779
8767,1.783
8768,1.783
8769,1.787
8770,1.787
8771,1.787
8772,1.79
8773,1.79
8774,1.798
8775,1.798
8776,1.801
8777,1.801
8778,1.798
8779,1.798
8780,1.801
8781,1.801
8782,1.805
8783,1.805
8784,1.805
8785,1.805
8786,1.808
8787,1.808
8788,1.808
8789,1.808
8790,1.808
8791,1.808
8792,1.808
8793,1.808
8794,1.808
8795,1.808
8796,1.808
8797,1.812
8798,1.812
8799,1.816
8800,1.819
8801,1.823
8802,1.823
8803,1.826
8804,1.826
8805,1.826
8806,1.826
8807,1.83
8808,1.834
8809,1.837
8810,1.841
8811,1.841
8812,1.845
8813,1.845
8814,1.845
8815,1.841
8816,1.837
8817,1.834
8818,1.834
8819,1.83
8820,1.83
8821,1.83
8822,1.834
8823,1.834
8824,1.83
8825,1.83
8826,1.826
8827,1.826
8828,1.826
8829,1.83
8830,1.83
8831,1.834
8832,1.83
8833,1.83
8834,1.83
8835,1.826
8836,1.826
8837,1.823
8838,1.823
8839,1.819
8840,1.816
8841,1.812
8842,1.812
8843,1.812
8844,1.812
8845,1.812
8846,1.812
8847,1.812
8848,1.812
8849,1.812
8850,1.816
8851,1.816
8852,1.819
8853,1.819
8854,1.819
8855,1.823
8856,1.826
8857,1.826
8858,1.826
8859,1.826
8860,1.826
8861,1.826
8862,1.823
8863,1.823
8864,1.823
8865,1.823
8866,1.826
8867,1.826
8868,1.83
8869,1.834
8870,1.837
8871,1.837
8872,1.845
8873,1.848
8874,1.848
8875,1.848
8876,1.845
8877,1.848
8878,1.848
8879,1.848
8880,1.845
8881,1.845
8882,1.845
8883,1.848
8884,1.852
8885,1.859
8886,1.866
8887,1.87
8888,1.877
8889,1.877
8890,1.881
8891,1.881
8892,1.881
8893,1.877
8894,1.877
8895,1.877
8896,1.874
8897,1.874
8898,1.877
8899,1.881
8900,1.877
8901,1.881
8902,1.884
8903,1.892
8904,1.895
8905,1.902
8906,1.906
8907,1.906
8908,1.902
8909,1.899
8910,1.895
8911,1.888
8912,1.881
8913,1.877
8914,1.874
8915,1.874
8916,1.874
8917,1.877
8918,1.877
8919,1.877
8920,1.874
8921,1.87
8922,1.87
8923,1.87
8924,1.866
8925,1.866
8926,1.863
8927,1.863
8928,1.866
8929,1.87
8930,1.877
8931,1.881
8932,1.881
8933,1.884
8934,1.881
8935,1.877
8936,1.874
8937,1.874
8938,1.87
8939,1.87
8940,1.87
8941,1.87
8942,1.87
8943,1.87
8944,1.87
8945,1.866
8946,1.866
8947,1.866
8948,1.866
8949,1.87
8950,1.874
8951,1.881
8952,1.888
8953,1.895
8954,1.895
8955,1.899
8956,1.899
8957,1.899
8958,1.899
8959,1.899
8960,1.895
8961,1.892
8962,1.888
8963,1.888
8964,1.888
8965,1.884
8966,1.884
8967,1.888
8968,1.888
8969,1.895
8970,1.899
8971,1.902
8972,1.906
8973,1.906
8974,1.91
8975,1.906
8976,1.899
8977,1.895
8978,1.888
8979,1.881
8980,1.877
8981,1.874
8982,1.874
8983,1.874
8984,1.874
8985,1.877
8986,1.874
8987,1.87
8988,1.866
8989,1.863
8990,1.859
8991,1.855
8992,1.855
8993,1.859
8994,1.859
8995,1.863
8996,1.866
8997,1.863
8998,1.863
8999,1.863
9000,1.859
9001,1.855
9002,1.852
9003,1.848
9004,1.848
9005,1.852
9006,1.855
9007,1.863
9008,1.866
9009,1.87
9010,1.877
9011,1.884
9012,1.892
9013,1.895
9014,1.899
9015,1.902
9016,1.902
9017,1.906
9018,1.906
9019,1.906
9020,1.906
9021,1.91
9022,1.913
9023,1.917
9024,1.921
9025,1.924
9026,1.928
9027,1.931
9028,1.939
9029,1.939
9030,1.942
9031,1.946
9032,1.946
9033,1.942
9034,1.939
9035,1.935
9036,1.931
9037,1.921
9038,1.917
9039,1.913
9040,1.906
9041,1.899
9042,1.895
9043,1.892
9044,1.888
9045,1.888
9046,1.884
9047,1.884
9048,1.884
9049,1.884
9050,1.884
9051,1.884
9052,1.881
9053,1.877
9054,1.877
9055,1.87
9056,1.87
9057,1.87
9058,1.874
9059,1.874
9060,1.877
9061,1.874
9062,1.87
9063,1.863
9064,1.859
9065,1.855
9066,1.855
9067,1.855
9068,1.855
9069,1.855
9070,1.852
9071,1.841
9072,1.83
9073,1.805
9074,1.779
9075,1.751
9076,1.718
9077,1.685
9078,1.649
9079,1.613
9080,1.573
9081,1.526
9082,1.468
9083,1.4
9084,1.331
9085,1.284
9086,1.27
9087,1.295
9088,1.342
9089,1.385
9090,1.407
9091,1.396
9092,1.367
9093,1.371
9094,1.447
9095,1.606
9096,1.819
9097,2.062
9098,2.311
9099,2.546
9100,2.727
9101,2.836
9102,2.861
9103,2.817
9104,2.727
9105,2.597
9106,2.449
9107,2.293
9108,2.152
9109,2.036
9110,1.946
9111,1.881
9112,1.841
9113,1.823
9114,1.816
9115,1.819
9116,1.823
9117,1.83
9118,1.834
9119,1.834
9120,1.834
9121,1.837
9122,1.837
9123,1.837
9124,1.834
9125,1.834
9126,1.834
9127,1.826
9128,1.826
9129,1.826
9130,1.83
9131,1.834
9132,1.837
9133,1.841
9134,1.845
9135,1.845
9136,1.848
9137,1.848
9138,1.845
9139,1.845
9140,1.841
9141,1.837
9142,1.837
9143,1.837
9144,1.837
9145,1.837
9146,1.837
9147,1.845
9148,1.848
9149,1.852
9150,1.855
9151,1.855
9152,1.859
9153,1.855
9154,1.852
9155,1.845
9156,1.841
9157,1.834
9158,1.83
9159,1.826
9160,1.826
9161,1.826
9162,1.826
9163,1.826
9164,1.826
9165,1.826
9166,1.826
9167,1.826
9168,1.823
9169,1.823
9170,1.816
9171,1.812
9172,1.812
9173,1.812
9174,1.812
9175,1.812
9176,1.816
9177,1.816
9178,1.819
9179,1.819
9180,1.823
9181,1.819
9182,1.819
9183,1.819
9184,1.823
9185,1.826
9186,1.83
9187,1.834
9188,1.837
9189,1.841
9190,1.845
9191,1.852
9192,1.852
9193,1.855
9194,1.855
9195,1.855
9196,1.855
9197,1.852
9198,1.848
9199,1.845
9200,1.848
9201,1.855
9202,1.855
9203,1.859
9204,1.859
9205,1.863
9206,1.863
9207,1.87
9208,1.874
9209,1.881
9210,1.888
9211,1.892
9212,1.899
9213,1.902
9214,1.906
9215,1.91
9216,1.913
9217,1.921
9218,1.928
9219,1.931
9220,1.935
9221,1.939
9222,1.939
9223,1.942
9224,1.942
9225,1.946
9226,1.949
9227,1.953
9228,1.96
9229,1.964
9230,1.968
9231,1.975
9232,1.978
9233,1.978
9234,1.982
9235,1.975
9236,1.971
9237,1.968
9238,1.964
9239,1.96
9240,1.953
9241,1.949
9242,1.942
9243,1.935
9244,1.928
9245,1.921
9246,1.906
9247,1.899
9248,1.884
9249,1.877
9250,1.866
9251,1.855
9252,1.845
9253,1.834
9254,1.823
9255,1.816
9256,1.808
9257,1.798
9258,1.79
9259,1.779
9260,1.769
9261,1.761
9262,1.754
9263,1.751
9264,1.754
9265,1.758
9266,1.761
9267,1.769
9268,1.772
9269,1.776
9270,1.779
9271,1.779
9272,1.783
9273,1.779
9274,1.779
9275,1.776
9276,1.776
9277,1.776
9278,1.776
9279,1.779
9280,1.783
9281,1.783
9282,1.787
9283,1.787
9284,1.783
9285,1.787
9286,1.787
9287,1.787
9288,1.79
9289,1.79
9290,1.787
9291,1.783
9292,1.779
9293,1.772
9294,1.772
9295,1.772
9296,1.772
9297,1.776
9298,1.776
9299,1.779
9300,1.783
9301,1.787
9302,1.787
9303,1.783
9304,1.783
9305,1.779
9306,1.779
9307,1.776
9308,1.779
9309,1.776
9310,1.779
9311,1.776
9312,1.776
9313,1.779
9314,1.779
9315,1.783
9316,1.783
9317,1.783
9318,1.783
9319,1.787
9320,1.79
9321,1.794
9322,1.798
9323,1.805
9324,1.808
9325,1.812
9326,1.812
9327,1.816
9328,1.816
9329,1.816
9330,1.816
9331,1.819
9332,1.819
9333,1.819
9334,1.816
9335,1.816
9336,1.816
9337,1.816
9338,1.812
9339,1.816
9340,1.819
9341,1.823
9342,1.826
9343,1.826
9344,1.826
9345,1.83
9346,1.834
9347,1.834
9348,1.834
9349,1.834
9350,1.834
9351,1.83
9352,1.834
9353,1.837
9354,1.837
9355,1.845
9356,1.845
9357,1.848
9358,1.848
9359,1.845
9360,1.845
9361,1.841
9362,1.841
9363,1.837
9364,1.837
9365,1.834
9366,1.834
9367,1.83
9368,1.826
9369,1.823
9370,1.823
9371,1.819
9372,1.819
9373,1.823
9374,1.826
9375,1.83
9376,1.834
9377,1.834
9378,1.834
9379,1.834
9380,1.834
9381,1.834
9382,1.834
9383,1.837
9384,1.841
9385,1.845
9386,1.848
9387,1.852
9388,1.852
9389,1.848
9390,1.845
9391,1.845
9392,1.841
9393,1.841
9394,1.841
9395,1.841
9396,1.845
9397,1.845
9398,1.848
9399,1.848
9400,1.852
9401,1.855
9402,1.859
9403,1.859
9404,1.859
9405,1.859
9406,1.859
9407,1.859
9408,1.855
9409,1.855
9410,1.855
9411,1.855
9412,1.859
9413,1.863
9414,1.863
9415,1.866
9416,1.874
9417,1.874
9418,1.877
9419,1.874
9420,1.874
9421,1.877
9422,1.877
9423,1.877
9424,1.881
9425,1.881
9426,1.884
9427,1.888
9428,1.892
9429,1.892
9430,1.895
9431,1.895
9432,1.899
9433,1.906
9434,1.91
9435,1.913
9436,1.913
9437,1.913
9438,1.913
9439,1.917
9440,1.917
9441,1.913
9442,1.913
9443,1.913
9444,1.917
9445,1.917
9446,1.917
9447,1.917
9448,1.921
9449,1.924
9450,1.928
9451,1.931
9452,1.931
9453,1.935
9454,1.935
9455,1.935
9456,1.935
9457,1.935
9458,1.935
9459,1.935
9460,1.928
9461,1.924
9462,1.921
9463,1.917
9464,1.91
9465,1.906
9466,1.906
9467,1.902
9468,1.895
9469,1.892
9470,1.892
9471,1.888
9472,1.888
9473,1.884
9474,1.881
9475,1.884
9476,1.884
9477,1.888
9478,1.888
9479,1.888
9480,1.884
9481,1.881
9482,1.881
9483,1.888
9484,1.888
9485,1.892
9486,1.895
9487,1.899
9488,1.902
9489,1.91
9490,1.917
9491,1.924
9492,1.931
9493,1.935
9494,1.939
9495,1.939
9496,1.939
9497,1.939
9498,1.939
9499,1.939
9500,1.942
9501,1.942
9502,1.942
9503,1.942
9504,1.942
9505,1.939
9506,1.939
9507,1.942
9508,1.942
9509,1.946
9510,1.946
9511,1.946
9512,1.942
9513,1.939
9514,1.931
9515,1.928
9516,1.924
9517,1.921
9518,1.917
9519,1.917
9520,1.917
9521,1.913
9522,1.91
9523,1.906
9524,1.902
9525,1.902
9526,1.902
9527,1.902
9528,1.902
9529,1.906
9530,1.91
9531,1.91
9532,1.913
9533,1.913
9534,1.913
9535,1.91
9536,1.91
9537,1.91
9538,1.906
9539,1.906
9540,1.906
9541,1.906
9542,1.906
9543,1.906
9544,1.906
9545,1.902
9546,1.902
9547,1.902
9548,1.895
9549,1.881
9550,1.859
9551,1.83
9552,1.798
9553,1.765
9554,1.732
9555,1.704
9556,1.667
9557,1.631
9558,1.591
9559,1.552
9560,1.501
9561,1.443
9562,1.389
9563,1.36
9564,1.364
9565,1.4
9566,1.45
9567,1.487
9568,1.487
9569,1.447
9570,1.396
9571,1.396
9572,1.476
9573,1.642
9574,1.859
9575,2.098
9576,2.34
9577,2.564
9578,2.738
9579,2.839
9580,2.868
9581,2.821
9582,2.727
9583,2.597
9584,2.452
9585,2.304
9586,2.17
9587,2.051
9588,1.964
9589,1.899
9590,1.863
9591,1.845
9592,1.834
9593,1.837
9594,1.841
9595,1.845
9596,1.852
9597,1.852
9598,1.852
9599,1.852
9600,1.848
9601,1.845
9602,1.845
9603,1.841
9604,1.837
9605,1.837
9606,1.834
9607,1.834
9608,1.834
9609,1.837
9610,1.837
9611,1.837
9612,1.841
9613,1.841
9614,1.841
9615,1.841
9616,1.841
9617,1.845
9618,1.845
9619,1.845
9620,1.845
9621,1.845
9622,1.848
9623,1.855
9624,1.855
9625,1.859
9626,1.863
9627,1.863
9628,1.863
9629,1.863
9630,1.855
9631,1.855
9632,1.859
9633,1.863
9634,1.87
9635,1.877
9636,1.881
9637,1.884
9638,1.884
9639,1.884
9640,1.884
9641,1.881
9642,1.877
9643,1.877
9644,1.877
9645,1.881
9646,1.881
9647,1.881
9648,1.881
9649,1.877
9650,1.877
9651,1.877
9652,1.877
9653,1.877
9654,1.877
9655,1.881
9656,1.884
9657,1.884
9658,1.884
9659,1.884
9660,1.884
9661,1.881
9662,1.881
9663,1.881
9664,1.877
9665,1.877
9666,1.881
9667,1.884
9668,1.884
9669,1.888
9670,1.888
9671,1.895
9672,1.899
9673,1.906
9674,1.91
9675,1.91
9676,1.913
9677,1.917
9678,1.921
9679,1.921
9680,1.921
9681,1.924
9682,1.924
9683,1.924
9684,1.928
9685,1.931
9686,1.935
9687,1.939
9688,1.939
9689,1.939
9690,1.942
9691,1.946
9692,1.946
9693,1.949
9694,1.953
9695,1.957
9696,1.96
9697,1.964
9698,1.968
9699,1.975
9700,1.982
9701,1.989
9702,1.993
9703,2.0
9704,2.007
9705,2.015
9706,2.018
9707,2.025
9708,2.029
9709,2.033
9710,2.036
9711,2.04
9712,2.04
9713,2.04
9714,2.036
9715,2.033
9716,2.025
9717,2.022
9718,2.015
9719,2.007
9720,1.996
9721,1.982
9722,1.968
9723,1.953
9724,1.939
9725,1.931
9726,1.921
9727,1.913
9728,1.906
9729,1.895
9730,1.884
9731,1.881
9732,1.87
9733,1.863
9734,1.855
9735,1.852
9736,1.848
9737,1.845
9738,1.841
9739,1.837
9740,1.834
9741,1.83
9742,1.83
9743,1.826
9744,1.826
9745,1.826
9746,1.826
9747,1.83
9748,1.83
9749,1.83
9750,1.834
9751,1.83
9752,1.83
9753,1.83
9754,1.834
9755,1.834
9756,1.837
9757,1.841
9758,1.845
9759,1.848
9760,1.848
9761,1.848
9762,1.848
9763,1.848
9764,1.848
9765,1.845
9766,1.848
9767,1.848
9768,1.852
9769,1.852
9770,1.855
9771,1.855
9772,1.855
9773,1.852
9774,1.852
9775,1.852
9776,1.852
9777,1.852
9778,1.848
9779,1.848
9780,1.848
9781,1.848
9782,1.845
9783,1.845
9784,1.845
9785,1.845
9786,1.845
9787,1.845
9788,1.845
9789,1.845
9790,1.848
9791,1.852
9792,1.855
9793,1.863
9794,1.866
9795,1.866
9796,1.87
9797,1.866
9798,1.863
9799,1.859
9800,1.855
9801,1.855
9802,1.852
9803,1.852
9804,1.855
9805,1.855
9806,1.855
9807,1.859
9808,1.855
9809,1.855
9810,1.852
9811,1.848
9812,1.852
9813,1.852
9814,1.855
9815,1.855
9816,1.855
9817,1.855
9818,1.855
9819,1.848
9820,1.845
9821,1.841
9822,1.837
9823,1.834
9824,1.834
9825,1.834
9826,1.834
9827,1.834
9828,1.83
9829,1.83
9830,1.83
9831,1.83
9832,1.83
9833,1.834
9834,1.834
9835,1.834
9836,1.837
9837,1.841
9838,1.841
9839,1.845
9840,1.841
9841,1.834
9842,1.83
9843,1.83
9844,1.83
9845,1.83
9846,1.834
9847,1.837
9848,1.837
9849,1.837
9850,1.837
9851,1.837
9852,1.837
9853,1.837
9854,1.837
9855,1.837
9856,1.837
9857,1.837
9858,1.834
9859,1.834
9860,1.834
9861,1.837
9862,1.837
9863,1.841
9864,1.845
9865,1.845
9866,1.845
9867,1.848
9868,1.848
9869,1.848
9870,1.848
9871,1.852
9872,1.859
9873,1.863
9874,1.866
9875,1.87
9876,1.87
9877,1.874
9878,1.874
9879,1.877
9880,1.877
9881,1.877
9882,1.877
9883,1.881
9884,1.884
9885,1.884
9886,1.881
9887,1.881
9888,1.881
9889,1.881
9890,1.884
9891,1.888
9892,1.888
9893,1.892
9894,1.892
9895,1.888
9896,1.888
9897,1.884
9898,1.884
9899,1.881
9900,1.881
9901,1.884
9902,1.884
9903,1.884
9904,1.888
9905,1.884
9906,1.884
9907,1.884
9908,1.881
9909,1.881
9910,1.884
9911,1.884
9912,1.888
9913,1.888
9914,1.888
9915,1.888
9916,1.884
9917,1.884
9918,1.881
9919,1.874
9920,1.87
9921,1.866
9922,1.866
9923,1.866
9924,1.866
9925,1.863
9926,1.866
9927,1.863
9928,1.859
9929,1.855
9930,1.855
9931,1.852
9932,1.852
9933,1.848
9934,1.848
9935,1.845
9936,1.845
9937,1.848
9938,1.841
9939,1.841
9940,1.841
9941,1.841
9942,1.841
9943,1.841
9944,1.845
9945,1.845
9946,1.845
9947,1.848
9948,1.852
9949,1.848
9950,1.845
9951,1.845
9952,1.841
9953,1.837
9954,1.837
9955,1.837
9956,1.841
9957,1.841
9958,1.841
9959,1.841
9960,1.837
9961,1.837
9962,1.841
9963,1.841
9964,1.841
9965,1.841
9966,1.841
9967,1.837
9968,1.837
9969,1.841
9970,1.841
9971,1.841
9972,1.845
9973,1.845
9974,1.845
9975,1.841
9976,1.837
9977,1.837
9978,1.837
9979,1.834
9980,1.834
9981,1.83
9982,1.83
9983,1.826
9984,1.826
9985,1.83
9986,1.834
9987,1.841
9988,1.845
9989,1.848
9990,1.848
9991,1.852
9992,1.852
9993,1.852
9994,1.855
9995,1.855
9996,1.859
9997,1.863
9998,1.866
9999,1.874
10000,1.881
10001,1.892
10002,1.899
10003,1.902
10004,1.906
10005,1.906
10006,1.913
10007,1.917
10008,1.924
10009,1.924
10010,1.928
10011,1.924
10012,1.924
10013,1.928
10014,1.924
10015,1.924
10016,1.924
10017,1.924
10018,1.924
10019,1.921
10020,1.917
10021,1.913
10022,1.906
10023,1.902
10024,1.892
10025,1.884
10026,1.881
10027,1.874
10028,1.866
10029,1.863
10030,1.859
10031,1.859
10032,1.859
10033,1.859
10034,1.855
10035,1.852
10036,1.852
10037,1.848
10038,1.848
10039,1.852
10040,1.848
10041,1.848
10042,1.848
10043,1.848
10044,1.848
10045,1.852
10046,1.848
10047,1.848
10048,1.848
10049,1.848
10050,1.848
10051,1.848
10052,1.848
10053,1.848
10054,1.845
10055,1.841
10056,1.841
10057,1.841
10058,1.837
10059,1.834
10060,1.823
10061,1.808
10062,1.787
10063,1.754
10064,1.722
10065,1.689
10066,1.66
10067,1.631
10068,1.595
10069,1.552
10070,1.505
10071,1.447
10072,1.374
10073,1.298
10074,1.233
10075,1.212
10076,1.241
10077,1.302
10078,1.374
10079,1.432
10080,1.472
10081,1.494
10082,1.523
10083,1.617
10084,1.787
10085,2.015
10086,2.268
10087,2.528
10088,2.763
10089,2.915
10090,2.987
10091,2.969
10092,2.879
10093,2.742
10094,2.568
10095,2.383
10096,2.213
10097,2.069
10098,1.96
10099,1.884
10100,1.834
10101,1.808
10102,1.801
10103,1.801
10104,1.808
10105,1.816
10106,1.819
10107,1.823
10108,1.826
10109,1.83
10110,1.83
10111,1.826
10112,1.826
10113,1.823
10114,1.819
10115,1.816
10116,1.816
10117,1.816
10118,1.819
10119,1.819
10120,1.823
10121,1.823
10122,1.826
10123,1.826
10124,1.826
10125,1.823
10126,1.819
10127,1.819
10128,1.816
10129,1.812
10130,1.812
10131,1.816
10132,1.816
10133,1.812
10134,1.808
10135,1.805
10136,1.801
10137,1.798
10138,1.798
10139,1.794
10140,1.798
10141,1.798
10142,1.801
10143,1.801
10144,1.801
10145,1.801
10146,1.805
10147,1.805
10148,1.805
10149,1.805
10150,1.808
10151,1.808
10152,1.808
10153,1.812
10154,1.808
10155,1.805
10156,1.805
10157,1.801
10158,1.805
10159,1.805
10160,1.801
10161,1.801
10162,1.798
10163,1.794
10164,1.801
10165,1.801
10166,1.805
10167,1.808
10168,1.812
10169,1.812
10170,1.816
10171,1.816
10172,1.823
10173,1.826
10174,1.83
10175,1.834
10176,1.83
10177,1.83
10178,1.83
10179,1.83
10180,1.834
10181,1.834
10182,1.834
10183,1.834
10184,1.837
10185,1.845
10186,1.848
10187,1.852
10188,1.855
10189,1.859
10190,1.863
10191,1.863
10192,1.863
10193,1.866
10194,1.866
10195,1.866
10196,1.87
10197,1.87
10198,1.874
10199,1.874
10200,1.877
10201,1.877
10202,1.877
10203,1.881
10204,1.881
10205,1.881
10206,1.881
10207,1.884
10208,1.884
10209,1.881
10210,1.881
10211,1.881
10212,1.881
10213,1.884
10214,1.884
10215,1.888
10216,1.892
10217,1.895
10218,1.902
10219,1.906
10220,1.91
10221,1.91
10222,1.91
10223,1.91
10224,1.906
10225,1.906
10226,1.902
10227,1.902
10228,1.899
10229,1.895
10230,1.888
10231,1.881
10232,1.874
10233,1.866
10234,1.859
10235,1.852
10236,1.845
10237,1.837
10238,1.83
10239,1.823
10240,1.816
10241,1.808
10242,1.798
10243,1.79
10244,1.779
10245,1.776
10246,1.772
10247,1.769
10248,1.769
10249,1.765
10250,1.769
10251,1.765
10252,1.761
10253,1.758
10254,1.758
10255,1.758
10256,1.758
10257,1.761
10258,1.761
10259,1.765
10260,1.769
10261,1.776
10262,1.779
10263,1.779
10264,1.783
10265,1.787
10266,1.79
10267,1.794
10268,1.798
10269,1.801
10270,1.808
10271,1.812
10272,1.819
10273,1.819
10274,1.823
10275,1.826
10276,1.826
10277,1.826
10278,1.823
10279,1.819
10280,1.819
10281,1.816
10282,1.816
10283,1.819
10284,1.819
10285,1.819
10286,1.823
10287,1.826
10288,1.83
10289,1.83
10290,1.83
10291,1.83
10292,1.83
10293,1.826
10294,1.826
10295,1.823
10296,1.816
10297,1.812
10298,1.812
10299,1.808
10300,1.812
10301,1.808
10302,1.808
10303,1.808
10304,1.812
10305,1.816
10306,1.819
10307,1.819
10308,1.819
10309,1.819
10310,1.816
10311,1.812
10312,1.808
10313,1.808
10314,1.805
10315,1.808
10316,1.805
10317,1.805
10318,1.805
10319,1.808
10320,1.812
10321,1.812
10322,1.816
10323,1.816
10324,1.819
10325,1.816
10326,1.816
10327,1.812
10328,1.812
10329,1.812
10330,1.812
10331,1.812
10332,1.812
10333,1.816
10334,1.819
10335,1.823
10336,1.823
10337,1.83
10338,1.83
10339,1.83
10340,1.834
10341,1.834
10342,1.834
10343,1.834
10344,1.834
10345,1.834
10346,1.834
10347,1.837
10348,1.841
10349,1.841
10350,1.845
10351,1.845
10352,1.852
10353,1.855
10354,1.863
10355,1.866
10356,1.874
10357,1.877
10358,1.884
10359,1.888
10360,1.892
10361,1.895
10362,1.895
10363,1.895
10364,1.892
10365,1.892
10366,1.888
10367,1.884
10368,1.884
10369,1.884
10370,1.884
10371,1.888
10372,1.892
10373,1.892
10374,1.892
10375,1.892
10376,1.892
10377,1.895
10378,1.895
10379,1.895
10380,1.899
10381,1.895
10382,1.895
10383,1.892
10384,1.888
10385,1.888
10386,1.888
10387,1.892
10388,1.895
10389,1.895
10390,1.892
10391,1.892
10392,1.888
10393,1.888
10394,1.884
10395,1.884
10396,1.881
10397,1.877
10398,1.877
10399,1.874
10400,1.877
10401,1.881
10402,1.884
10403,1.884
10404,1.888
10405,1.892
10406,1.888
10407,1.888
10408,1.884
10409,1.881
10410,1.877
10411,1.877
10412,1.881
10413,1.884
10414,1.895
10415,1.899
10416,1.902
10417,1.906
10418,1.91
10419,1.913
10420,1.913
10421,1.917
10422,1.917
10423,1.921
10424,1.921
10425,1.913
10426,1.913
10427,1.913
10428,1.913
10429,1.913
10430,1.913
10431,1.913
10432,1.913
10433,1.913
10434,1.917
10435,1.91
10436,1.906
10437,1.906
10438,1.906
10439,1.906
10440,1.906
10441,1.902
10442,1.899
10443,1.895
10444,1.892
10445,1.892
10446,1.888
10447,1.884
10448,1.884
10449,1.884
10450,1.884
10451,1.884
10452,1.884
10453,1.884
10454,1.881
10455,1.881
10456,1.881
10457,1.877
10458,1.877
10459,1.881
10460,1.881
10461,1.884
10462,1.881
10463,1.877
10464,1.87
10465,1.866
10466,1.866
10467,1.87
10468,1.87
10469,1.874
10470,1.874
10471,1.877
10472,1.877
10473,1.877
10474,1.881
10475,1.881
10476,1.884
10477,1.888
10478,1.888
10479,1.888
10480,1.892
10481,1.892
10482,1.895
10483,1.895
10484,1.895
10485,1.895
10486,1.895
10487,1.892
10488,1.892
10489,1.892
10490,1.888
10491,1.888
10492,1.884
10493,1.881
10494,1.877
10495,1.874
10496,1.87
10497,1.874
10498,1.874
10499,1.877
10500,1.877
10501,1.877
10502,1.874
10503,1.87
10504,1.866
10505,1.863
10506,1.859
10507,1.852
10508,1.848
10509,1.841
10510,1.841
10511,1.837
10512,1.837
10513,1.841
10514,1.845
10515,1.848
10516,1.855
10517,1.859
10518,1.863
10519,1.863
10520,1.855
10521,1.852
10522,1.845
10523,1.841
10524,1.841
10525,1.845
10526,1.845
10527,1.852
10528,1.859
10529,1.866
10530,1.877
10531,1.888
10532,1.899
10533,1.906
10534,1.913
10535,1.921
10536,1.924
10537,1.928
10538,1.928
10539,1.928
10540,1.924
10541,1.921
10542,1.921
10543,1.917
10544,1.913
10545,1.921
10546,1.928
10547,1.931
10548,1.935
10549,1.939
10550,1.942
10551,1.942
10552,1.942
10553,1.942
10554,1.935
10555,1.931
10556,1.924
10557,1.913
10558,1.902
10559,1.895
10560,1.888
10561,1.884
10562,1.881
10563,1.881
10564,1.888
10565,1.888
10566,1.888
10567,1.888
10568,1.884
10569,1.881
10570,1.874
10571,1.87
10572,1.863
10573,1.859
10574,1.859
10575,1.863
10576,1.866
10577,1.866
10578,1.87
10579,1.87
10580,1.874
10581,1.87
10582,1.87
10583,1.866
10584,1.863
10585,1.855
10586,1.852
10587,1.845
10588,1.841
10589,1.834
10590,1.826
10591,1.812
10592,1.794
10593,1.772
10594,1.743
10595,1.714
10596,1.685
10597,1.649
10598,1.609
10599,1.573
10600,1.53
10601,1.483
10602,1.425
10603,1.364
10604,1.309
10605,1.284
10606,1.295
10607,1.338
10608,1.389
10609,1.421
10610,1.425
10611,1.396
10612,1.371
10613,1.403
10614,1.515
10615,1.7
10616,1.924
10617,2.166
10618,2.412
10619,2.626
10620,2.778
10621,2.846
10622,2.846
10623,2.781
10624,2.673
10625,2.535
10626,2.383
10627,2.239
10628,2.109
10629,2.007
10630,1.928
10631,1.881
10632,1.848
10633,1.834
10634,1.83
10635,1.834
10636,1.837
10637,1.841
10638,1.841
10639,1.841
10640,1.841
10641,1.837
10642,1.834
10643,1.83
10644,1.834
10645,1.83
10646,1.83
10647,1.826
10648,1.823
10649,1.819
10650,1.816
10651,1.816
10652,1.812
10653,1.812
10654,1.812
10655,1.816
10656,1.816
10657,1.816
10658,1.816
10659,1.819
10660,1.819
10661,1.819
10662,1.816
10663,1.816
10664,1.812
10665,1.805
10666,1.805
10667,1.805
10668,1.805
10669,1.805
10670,1.805
10671,1.808
10672,1.812
10673,1.808
10674,1.808
10675,1.812
10676,1.812
10677,1.816
10678,1.816
10679,1.816
10680,1.819
10681,1.819
10682,1.816
10683,1.816
10684,1.812
10685,1.812
10686,1.816
10687,1.819
10688,1.823
10689,1.826
10690,1.83
10691,1.834
10692,1.837
10693,1.841
10694,1.848
10695,1.845
10696,1.845
10697,1.841
10698,1.837
10699,1.834
10700,1.834
10701,1.834
10702,1.837
10703,1.841
10704,1.845
10705,1.848
10706,1.852
10707,1.852
10708,1.848
10709,1.845
10710,1.848
10711,1.852
10712,1.855
10713,1.855
10714,1.859
10715,1.866
10716,1.866
10717,1.87
10718,1.874
10719,1.877
10720,1.881
10721,1.881
10722,1.884
10723,1.881
10724,1.884
10725,1.884
10726,1.888
10727,1.888
10728,1.892
10729,1.895
10730,1.902
10731,1.906
10732,1.91
10733,1.913
10734,1.917
10735,1.921
10736,1.921
10737,1.928
10738,1.928
10739,1.931
10740,1.939
10741,1.942
10742,1.946
10743,1.946
10744,1.949
10745,1.953
10746,1.957
10747,1.964
10748,1.975
10749,1.978
10750,1.986
10751,1.986
10752,1.986
10753,1.978
10754,1.971
10755,1.968
10756,1.964
10757,1.96
10758,1.96
10759,1.964
10760,1.96
10761,1.957
10762,1.957
10763,1.953
10764,1.946
10765,1.935
10766,1.924
10767,1.913
10768,1.902
10769,1.892
10770,1.874
10771,1.859
10772,1.841
10773,1.83
10774,1.819
10775,1.812
10776,1.805
10777,1.798
10778,1.794
10779,1.787
10780,1.783
10781,1.776
10782,1.769
10783,1.765
10784,1.765
10785,1.765
10786,1.769
10787,1.772
10788,1.776
10789,1.779
10790,1.779
10791,1.779
10792,1.779
10793,1.776
10794,1.779
10795,1.779
10796,1.783
10797,1.787
10798,1.79
10799,1.794
10800,1.798
10801,1.801
10802,1.805
10803,1.805
10804,1.805
10805,1.801
10806,1.798
10807,1.798
10808,1.798
10809,1.801
10810,1.801
10811,1.805
10812,1.808
10813,1.812
10814,1.812
10815,1.816
10816,1.816
10817,1.816
10818,1.816
10819,1.816
10820,1.819
10821,1.823
10822,1.83
10823,1.834
10824,1.841
10825,1.841
10826,1.845
10827,1.845
10828,1.845
10829,1.845
10830,1.845
10831,1.845
10832,1.841
10833,1.841
10834,1.845
10835,1.848
10836,1.848
10837,1.852
10838,1.855
10839,1.855
10840,1.855
10841,1.852
10842,1.848
10843,1.848
10844,1.848
10845,1.852
10846,1.852
10847,1.848
10848,1.848
10849,1.848
10850,1.848
10851,1.845
10852,1.845
10853,1.845
10854,1.845
10855,1.848
10856,1.855
10857,1.855
10858,1.852
10859,1.852
10860,1.848
10861,1.845
10862,1.841
10863,1.841
10864,1.841
10865,1.841
10866,1.845
10867,1.848
10868,1.845
10869,1.848
10870,1.845
10871,1.848
10872,1.848
10873,1.848
10874,1.845
10875,1.845
10876,1.845
10877,1.841
10878,1.845
10879,1.841
10880,1.837
10881,1.837
10882,1.834
10883,1.834
10884,1.834
10885,1.83
10886,1.83
10887,1.834
10888,1.837
10889,1.837
10890,1.837
10891,1.837
10892,1.837
10893,1.841
10894,1.845
10895,1.848
10896,1.852
10897,1.855
10898,1.859
10899,1.863
10900,1.863
10901,1.863
10902,1.863
10903,1.863
10904,1.863
10905,1.866
10906,1.87
10907,1.87
10908,1.87
10909,1.874
10910,1.874
10911,1.87
10912,1.866
10913,1.866
10914,1.866
10915,1.866
10916,1.866
10917,1.87
10918,1.874
10919,1.877
10920,1.881
10921,1.888
10922,1.888
10923,1.892
10924,1.895
10925,1.902
10926,1.902
10927,1.906
10928,1.906
10929,1.906
10930,1.902
10931,1.902
10932,1.902
10933,1.899
10934,1.899
10935,1.895
10936,1.895
10937,1.895
10938,1.895
10939,1.899
10940,1.899
10941,1.902
10942,1.902
10943,1.906
10944,1.906
10945,1.902
10946,1.902
10947,1.902
10948,1.906
10949,1.906
10950,1.906
10951,1.902
10952,1.895
10953,1.892
10954,1.888
10955,1.884
10956,1.881
10957,1.884
10958,1.884
10959,1.884
10960,1.884
10961,1.884
10962,1.881
10963,1.877
10964,1.877
10965,1.874
10966,1.87
10967,1.87
10968,1.866
10969,1.866
10970,1.87
10971,1.87
10972,1.87
10973,1.874
10974,1.877
10975,1.881
10976,1.884
10977,1.884
10978,1.884
10979,1.884
10980,1.881
10981,1.881
10982,1.881
10983,1.877
10984,1.881
10985,1.881
10986,1.884
10987,1.881
10988,1.881
10989,1.881
10990,1.881
10991,1.881
10992,1.881
10993,1.881
10994,1.884
10995,1.884
10996,1.884
10997,1.888
10998,1.888
10999,1.892
11000,1.895
11001,1.895
11002,1.899
11003,1.899
11004,1.899
11005,1.902
