,0
0,1.711
1,1.714
2,1.718
3,1.718
4,1.718
5,1.722
6,1.725
7,1.725
8,1.729
9,1.729
10,1.736
11,1.736
12,1.74
13,1.743
14,1.747
15,1.751
16,1.754
17,1.754
18,1.758
19,1.761
20,1.761
21,1.765
22,1.761
23,1.761
24,1.761
25,1.765
26,1.765
27,1.765
28,1.765
29,1.769
30,1.769
31,1.772
32,1.776
33,1.783
34,1.783
35,1.783
36,1.787
37,1.79
38,1.787
39,1.787
40,1.783
41,1.779
42,1.779
43,1.779
44,1.783
45,1.783
46,1.787
47,1.79
48,1.794
49,1.794
50,1.79
51,1.79
52,1.787
53,1.783
54,1.779
55,1.776
56,1.776
57,1.776
58,1.783
59,1.783
60,1.783
61,1.779
62,1.779
63,1.776
64,1.776
65,1.772
66,1.772
67,1.776
68,1.776
69,1.779
70,1.779
71,1.779
72,1.779
73,1.776
74,1.776
75,1.776
76,1.776
77,1.779
78,1.783
79,1.783
80,1.779
81,1.779
82,1.776
83,1.769
84,1.769
85,1.765
86,1.765
87,1.769
88,1.772
89,1.776
90,1.776
91,1.779
92,1.779
93,1.779
94,1.783
95,1.783
96,1.787
97,1.787
98,1.779
99,1.765
100,1.74
101,1.718
102,1.718
103,1.729
104,1.754
105,1.779
106,1.794
107,1.798
108,1.794
109,1.79
110,1.79
111,1.798
112,1.801
113,1.801
114,1.798
115,1.794
116,1.794
117,1.798
118,1.801
119,1.805
120,1.805
121,1.805
122,1.805
123,1.801
124,1.801
125,1.805
126,1.805
127,1.805
128,1.805
129,1.805
130,1.801
131,1.801
132,1.801
133,1.801
134,1.805
135,1.805
136,1.805
137,1.805
138,1.801
139,1.805
140,1.805
141,1.805
142,1.808
143,1.805
144,1.805
145,1.805
146,1.801
147,1.801
148,1.805
149,1.801
150,1.805
151,1.805
152,1.805
153,1.801
154,1.801
155,1.801
156,1.798
157,1.794
158,1.79
159,1.79
160,1.79
161,1.79
162,1.79
163,1.79
164,1.79
165,1.794
166,1.794
167,1.794
168,1.79
169,1.787
170,1.787
171,1.783
172,1.783
173,1.787
174,1.787
175,1.787
176,1.787
177,1.783
178,1.776
179,1.772
180,1.769
181,1.769
182,1.769
183,1.772
184,1.769
185,1.765
186,1.765
187,1.765
188,1.765
189,1.765
190,1.761
191,1.761
192,1.765
193,1.769
194,1.772
195,1.772
196,1.776
197,1.779
198,1.787
199,1.79
200,1.79
201,1.79
202,1.79
203,1.787
204,1.783
205,1.783
206,1.779
207,1.776
208,1.772
209,1.769
210,1.769
211,1.769
212,1.765
213,1.761
214,1.758
215,1.754
216,1.751
217,1.751
218,1.747
219,1.751
220,1.754
221,1.758
222,1.761
223,1.765
224,1.769
225,1.769
226,1.769
227,1.769
228,1.769
229,1.772
230,1.776
231,1.776
232,1.779
233,1.779
234,1.779
235,1.776
236,1.776
237,1.772
238,1.772
239,1.769
240,1.769
241,1.769
242,1.772
243,1.772
244,1.776
245,1.776
246,1.783
247,1.787
248,1.794
249,1.798
250,1.801
251,1.801
252,1.808
253,1.808
254,1.812
255,1.816
256,1.819
257,1.823
258,1.823
259,1.819
260,1.816
261,1.816
262,1.812
263,1.812
264,1.808
265,1.805
266,1.801
267,1.801
268,1.798
269,1.798
270,1.794
271,1.794
272,1.798
273,1.801
274,1.805
275,1.808
276,1.812
277,1.816
278,1.816
279,1.816
280,1.816
281,1.816
282,1.816
283,1.816
284,1.816
285,1.816
286,1.816
287,1.812
288,1.808
289,1.812
290,1.812
291,1.812
292,1.816
293,1.816
294,1.819
295,1.823
296,1.819
297,1.823
298,1.823
299,1.819
300,1.812
301,1.801
302,1.779
303,1.747
304,1.707
305,1.657
306,1.602
307,1.555
308,1.53
309,1.537
310,1.588
311,1.671
312,1.787
313,1.931
314,2.087
315,2.261
316,2.452
317,2.651
318,2.832
319,2.984
320,3.103
321,3.172
322,3.179
323,3.143
324,3.085
325,3.02
326,2.951
327,2.893
328,2.836
329,2.77
330,2.695
331,2.611
332,2.525
333,2.434
334,2.344
335,2.253
336,2.17
337,2.091
338,2.018
339,1.949
340,1.895
341,1.848
342,1.812
343,1.779
344,1.758
345,1.743
346,1.732
347,1.725
348,1.722
349,1.718
350,1.714
351,1.711
352,1.704
353,1.7
354,1.693
355,1.689
356,1.689
357,1.685
358,1.685
359,1.689
360,1.689
361,1.689
362,1.685
363,1.682
364,1.682
365,1.678
366,1.675
367,1.675
368,1.66
369,1.657
370,1.649
371,1.646
372,1.642
373,1.638
374,1.635
375,1.635
376,1.635
377,1.635
378,1.635
379,1.631
380,1.631
381,1.631
382,1.631
383,1.631
384,1.628
385,1.624
386,1.624
387,1.62
388,1.617
389,1.617
390,1.62
391,1.62
392,1.62
393,1.624
394,1.624
395,1.62
396,1.62
397,1.617
398,1.613
399,1.606
400,1.602
401,1.595
402,1.591
403,1.584
404,1.581
405,1.581
406,1.577
407,1.573
408,1.57
409,1.562
410,1.552
411,1.544
412,1.537
413,1.534
414,1.537
415,1.541
416,1.544
417,1.552
418,1.552
419,1.555
420,1.552
421,1.552
422,1.552
423,1.548
424,1.548
425,1.548
426,1.552
427,1.555
428,1.562
429,1.562
430,1.562
431,1.559
432,1.555
433,1.548
434,1.544
435,1.537
436,1.534
437,1.53
438,1.526
439,1.526
440,1.526
441,1.53
442,1.53
443,1.534
444,1.534
445,1.537
446,1.537
447,1.537
448,1.537
449,1.541
450,1.544
451,1.552
452,1.552
453,1.555
454,1.555
455,1.555
456,1.559
457,1.562
458,1.566
459,1.57
460,1.57
461,1.57
462,1.573
463,1.573
464,1.573
465,1.57
466,1.566
467,1.566
468,1.562
469,1.559
470,1.559
471,1.559
472,1.555
473,1.559
474,1.566
475,1.573
476,1.581
477,1.584
478,1.588
479,1.591
480,1.595
481,1.602
482,1.606
483,1.613
484,1.62
485,1.628
486,1.635
487,1.642
488,1.646
489,1.649
490,1.653
491,1.653
492,1.657
493,1.657
494,1.66
495,1.66
496,1.66
497,1.667
498,1.671
499,1.678
500,1.682
501,1.685
502,1.689
503,1.693
504,1.696
505,1.7
506,1.704
507,1.707
508,1.714
509,1.718
510,1.725
511,1.732
512,1.736
513,1.74
514,1.74
515,1.743
516,1.747
517,1.754
518,1.754
519,1.761
520,1.765
521,1.772
522,1.776
523,1.783
524,1.787
525,1.787
526,1.79
527,1.79
528,1.79
529,1.798
530,1.798
531,1.801
532,1.805
533,1.805
534,1.808
535,1.808
536,1.805
537,1.808
538,1.808
539,1.812
540,1.819
541,1.819
542,1.823
543,1.826
544,1.826
545,1.826
546,1.83
547,1.83
548,1.83
549,1.826
550,1.826
551,1.826
552,1.83
553,1.83
554,1.83
555,1.834
556,1.837
557,1.841
558,1.841
559,1.841
560,1.841
561,1.837
562,1.834
563,1.834
564,1.834
565,1.837
566,1.837
567,1.841
568,1.845
569,1.848
570,1.852
571,1.852
572,1.852
573,1.852
574,1.852
575,1.852
576,1.848
577,1.852
578,1.855
579,1.855
580,1.855
581,1.855
582,1.855
583,1.855
584,1.859
585,1.863
586,1.866
587,1.866
588,1.866
589,1.87
590,1.87
591,1.866
592,1.866
593,1.863
594,1.863
595,1.866
596,1.87
597,1.87
598,1.874
599,1.874
600,1.874
601,1.877
602,1.877
603,1.881
604,1.881
605,1.884
606,1.884
607,1.884
608,1.881
609,1.881
610,1.877
611,1.874
612,1.874
613,1.874
614,1.874
615,1.874
616,1.877
617,1.877
618,1.877
619,1.877
620,1.877
621,1.877
622,1.877
623,1.881
624,1.881
625,1.881
626,1.881
627,1.881
628,1.881
629,1.877
630,1.877
631,1.877
632,1.877
633,1.877
634,1.877
635,1.881
636,1.881
637,1.881
638,1.884
639,1.881
640,1.881
641,1.877
642,1.874
643,1.874
644,1.874
645,1.87
646,1.87
647,1.87
648,1.87
649,1.87
650,1.87
651,1.87
652,1.874
653,1.874
654,1.874
655,1.874
656,1.874
657,1.874
658,1.874
659,1.877
660,1.877
661,1.881
662,1.881
663,1.877
664,1.877
665,1.87
666,1.866
667,1.866
668,1.866
669,1.87
670,1.874
671,1.877
672,1.884
673,1.888
674,1.892
675,1.892
676,1.892
677,1.888
678,1.888
679,1.888
680,1.884
681,1.884
682,1.884
683,1.884
684,1.884
685,1.888
686,1.888
687,1.888
688,1.888
689,1.888
690,1.884
691,1.884
692,1.881
693,1.881
694,1.877
695,1.877
696,1.877
697,1.874
698,1.874
699,1.874
700,1.877
701,1.881
702,1.884
703,1.884
704,1.888
705,1.888
706,1.892
707,1.888
708,1.888
709,1.884
710,1.884
711,1.884
712,1.884
713,1.884
714,1.881
715,1.881
716,1.877
717,1.877
718,1.874
719,1.874
720,1.874
721,1.874
722,1.874
723,1.874
724,1.877
725,1.877
726,1.874
727,1.874
728,1.87
729,1.87
730,1.87
731,1.866
732,1.863
733,1.859
734,1.859
735,1.859
736,1.859
737,1.855
738,1.855
739,1.855
740,1.855
741,1.859
742,1.859
743,1.859
744,1.855
745,1.852
746,1.852
747,1.852
748,1.852
749,1.855
750,1.859
751,1.863
752,1.866
753,1.866
754,1.863
755,1.863
756,1.866
757,1.866
758,1.87
759,1.874
760,1.877
761,1.877
762,1.877
763,1.877
764,1.877
765,1.874
766,1.87
767,1.87
768,1.87
769,1.87
770,1.87
771,1.866
772,1.863
773,1.859
774,1.859
775,1.855
776,1.855
777,1.852
778,1.848
779,1.845
780,1.848
781,1.848
782,1.852
783,1.855
784,1.855
785,1.859
786,1.859
787,1.859
788,1.863
789,1.863
790,1.866
791,1.866
792,1.866
793,1.863
794,1.866
795,1.863
796,1.859
797,1.859
798,1.859
799,1.855
800,1.855
801,1.848
802,1.841
803,1.83
804,1.816
805,1.79
806,1.761
807,1.722
808,1.675
809,1.624
810,1.577
811,1.555
812,1.562
813,1.609
814,1.693
815,1.805
816,1.949
817,2.119
818,2.311
819,2.521
820,2.731
821,2.922
822,3.085
823,3.194
824,3.241
825,3.223
826,3.168
827,3.092
828,3.006
829,2.93
830,2.857
831,2.792
832,2.72
833,2.64
834,2.564
835,2.488
836,2.416
837,2.344
838,2.271
839,2.203
840,2.134
841,2.065
842,2.007
843,1.953
844,1.913
845,1.877
846,1.848
847,1.826
848,1.808
849,1.798
850,1.787
851,1.779
852,1.776
853,1.772
854,1.772
855,1.776
856,1.776
857,1.776
858,1.776
859,1.776
860,1.776
861,1.772
862,1.769
863,1.769
864,1.761
865,1.758
866,1.758
867,1.758
868,1.761
869,1.761
870,1.761
871,1.758
872,1.754
873,1.754
874,1.751
875,1.751
876,1.751
877,1.754
878,1.754
879,1.758
880,1.761
881,1.761
882,1.761
883,1.761
884,1.761
885,1.761
886,1.761
887,1.754
888,1.751
889,1.751
890,1.751
891,1.751
892,1.754
893,1.758
894,1.761
895,1.765
896,1.769
897,1.769
898,1.769
899,1.769
900,1.769
901,1.769
902,1.769
903,1.769
904,1.772
905,1.772
906,1.772
907,1.772
908,1.776
909,1.779
910,1.779
911,1.787
912,1.79
913,1.794
914,1.798
915,1.798
916,1.794
917,1.787
918,1.783
919,1.776
920,1.769
921,1.769
922,1.761
923,1.761
924,1.761
925,1.761
926,1.761
927,1.765
928,1.765
929,1.765
930,1.765
931,1.769
932,1.769
933,1.769
934,1.765
935,1.769
936,1.769
937,1.769
938,1.769
939,1.765
940,1.761
941,1.761
942,1.761
943,1.761
944,1.765
945,1.761
946,1.765
947,1.765
948,1.761
949,1.761
950,1.758
951,1.758
952,1.758
953,1.758
954,1.758
955,1.761
956,1.765
957,1.761
958,1.765
959,1.765
960,1.769
961,1.769
962,1.769
963,1.772
964,1.772
965,1.772
966,1.772
967,1.772
968,1.765
969,1.765
970,1.765
971,1.765
972,1.765
973,1.761
974,1.761
975,1.761
976,1.761
977,1.761
978,1.765
979,1.769
980,1.772
981,1.776
982,1.779
983,1.779
984,1.776
985,1.772
986,1.772
987,1.769
988,1.765
989,1.765
990,1.769
991,1.765
992,1.769
993,1.769
994,1.769
995,1.769
996,1.772
997,1.772
998,1.772
999,1.776
1000,1.776
1001,1.776
1002,1.776
1003,1.776
1004,1.779
1005,1.779
1006,1.783
1007,1.783
1008,1.787
1009,1.787
1010,1.787
1011,1.787
1012,1.787
1013,1.79
1014,1.787
1015,1.794
1016,1.798
1017,1.805
1018,1.812
1019,1.819
1020,1.819
1021,1.823
1022,1.823
1023,1.826
1024,1.823
1025,1.823
1026,1.816
1027,1.812
1028,1.812
1029,1.808
1030,1.805
1031,1.801
1032,1.798
1033,1.79
1034,1.787
1035,1.783
1036,1.783
1037,1.783
1038,1.783
1039,1.787
1040,1.79
1041,1.794
1042,1.794
1043,1.794
1044,1.794
1045,1.794
1046,1.798
1047,1.801
1048,1.805
1049,1.808
1050,1.812
1051,1.816
1052,1.819
1053,1.819
1054,1.819
1055,1.823
1056,1.823
1057,1.826
1058,1.83
1059,1.834
1060,1.834
1061,1.834
1062,1.834
1063,1.834
1064,1.834
1065,1.834
1066,1.834
1067,1.837
1068,1.837
1069,1.837
1070,1.837
1071,1.841
1072,1.837
1073,1.834
1074,1.837
1075,1.841
1076,1.841
1077,1.845
1078,1.845
1079,1.845
1080,1.845
1081,1.841
1082,1.841
1083,1.845
1084,1.841
1085,1.845
1086,1.845
1087,1.848
1088,1.852
1089,1.855
1090,1.855
1091,1.852
1092,1.852
1093,1.852
1094,1.852
1095,1.848
1096,1.852
1097,1.855
1098,1.859
1099,1.859
1100,1.859
1101,1.859
1102,1.855
1103,1.852
1104,1.852
1105,1.855
1106,1.859
1107,1.859
1108,1.859
1109,1.859
1110,1.859
1111,1.859
1112,1.855
1113,1.852
1114,1.852
1115,1.855
1116,1.855
1117,1.859
1118,1.855
1119,1.855
1120,1.855
1121,1.852
1122,1.852
1123,1.852
1124,1.852
1125,1.852
1126,1.852
1127,1.855
1128,1.855
1129,1.859
1130,1.859
1131,1.863
1132,1.863
1133,1.866
1134,1.863
1135,1.859
1136,1.859
1137,1.859
1138,1.855
1139,1.855
1140,1.855
1141,1.852
1142,1.855
1143,1.855
1144,1.859
1145,1.863
1146,1.863
1147,1.863
1148,1.863
1149,1.863
1150,1.863
1151,1.863
1152,1.863
1153,1.859
1154,1.863
1155,1.863
1156,1.866
1157,1.866
1158,1.866
1159,1.863
1160,1.863
1161,1.859
1162,1.859
1163,1.859
1164,1.855
1165,1.855
1166,1.859
1167,1.859
1168,1.859
1169,1.859
1170,1.859
1171,1.855
1172,1.855
1173,1.855
1174,1.852
1175,1.852
1176,1.848
1177,1.848
1178,1.845
1179,1.845
1180,1.845
1181,1.845
1182,1.841
1183,1.837
1184,1.837
1185,1.834
1186,1.834
1187,1.826
1188,1.826
1189,1.823
1190,1.823
1191,1.819
1192,1.816
1193,1.812
1194,1.808
1195,1.808
1196,1.805
1197,1.801
1198,1.801
1199,1.798
1200,1.798
1201,1.794
1202,1.79
1203,1.79
1204,1.79
1205,1.787
1206,1.779
1207,1.776
1208,1.772
1209,1.772
1210,1.772
1211,1.776
1212,1.783
1213,1.787
1214,1.79
1215,1.794
1216,1.794
1217,1.79
1218,1.79
1219,1.787
1220,1.783
1221,1.783
1222,1.776
1223,1.772
1224,1.769
1225,1.761
1226,1.758
1227,1.754
1228,1.751
1229,1.747
1230,1.743
1231,1.74
1232,1.74
1233,1.736
1234,1.732
1235,1.729
1236,1.725
1237,1.718
1238,1.711
1239,1.704
1240,1.7
1241,1.696
1242,1.693
1243,1.693
1244,1.693
1245,1.693
1246,1.693
1247,1.693
1248,1.696
1249,1.696
1250,1.7
1251,1.7
1252,1.7
1253,1.696
1254,1.693
1255,1.693
1256,1.689
1257,1.682
1258,1.682
1259,1.682
1260,1.678
1261,1.678
1262,1.675
1263,1.671
1264,1.667
1265,1.667
1266,1.664
1267,1.667
1268,1.667
1269,1.664
1270,1.664
1271,1.657
1272,1.642
1273,1.617
1274,1.588
1275,1.552
1276,1.505
1277,1.45
1278,1.4
1279,1.364
1280,1.36
1281,1.392
1282,1.465
1283,1.57
1284,1.707
1285,1.87
1286,2.051
1287,2.253
1288,2.467
1289,2.673
1290,2.85
1291,2.987
1292,3.074
1293,3.096
1294,3.063
1295,2.998
1296,2.922
1297,2.839
1298,2.763
1299,2.687
1300,2.608
1301,2.517
1302,2.427
1303,2.34
1304,2.257
1305,2.181
1306,2.109
1307,2.036
1308,1.968
1309,1.899
1310,1.837
1311,1.787
1312,1.743
1313,1.711
1314,1.678
1315,1.657
1316,1.635
1317,1.62
1318,1.609
1319,1.602
1320,1.595
1321,1.591
1322,1.588
1323,1.584
1324,1.577
1325,1.573
1326,1.573
1327,1.573
1328,1.577
1329,1.577
1330,1.577
1331,1.577
1332,1.577
1333,1.581
1334,1.581
1335,1.584
1336,1.588
1337,1.588
1338,1.591
1339,1.595
1340,1.599
1341,1.599
1342,1.602
1343,1.602
1344,1.602
1345,1.602
1346,1.606
1347,1.606
1348,1.606
1349,1.606
1350,1.609
1351,1.613
1352,1.62
1353,1.624
1354,1.628
1355,1.628
1356,1.628
1357,1.628
1358,1.62
1359,1.624
1360,1.62
1361,1.624
1362,1.631
1363,1.635
1364,1.642
1365,1.646
1366,1.649
1367,1.649
1368,1.649
1369,1.646
1370,1.646
1371,1.649
1372,1.649
1373,1.653
1374,1.657
1375,1.657
1376,1.657
1377,1.657
1378,1.657
1379,1.657
1380,1.657
1381,1.657
1382,1.657
1383,1.657
1384,1.657
1385,1.66
1386,1.664
1387,1.66
1388,1.657
1389,1.657
1390,1.653
1391,1.653
1392,1.649
1393,1.649
1394,1.653
1395,1.653
1396,1.653
1397,1.657
1398,1.657
1399,1.66
1400,1.66
1401,1.66
1402,1.664
1403,1.664
1404,1.667
1405,1.667
1406,1.664
1407,1.664
1408,1.664
1409,1.667
1410,1.671
1411,1.667
1412,1.667
1413,1.664
1414,1.66
1415,1.657
1416,1.653
1417,1.649
1418,1.649
1419,1.649
1420,1.649
1421,1.649
1422,1.649
1423,1.653
1424,1.653
1425,1.649
1426,1.649
1427,1.649
1428,1.653
1429,1.653
1430,1.649
1431,1.646
1432,1.646
1433,1.642
1434,1.642
1435,1.642
1436,1.642
1437,1.642
1438,1.642
1439,1.642
1440,1.642
1441,1.642
1442,1.649
1443,1.653
1444,1.657
1445,1.664
1446,1.667
1447,1.667
1448,1.667
1449,1.664
1450,1.664
1451,1.664
1452,1.664
1453,1.66
1454,1.667
1455,1.678
1456,1.689
1457,1.693
1458,1.696
1459,1.693
1460,1.693
1461,1.696
1462,1.7
1463,1.707
1464,1.711
1465,1.718
1466,1.722
1467,1.725
1468,1.725
1469,1.725
1470,1.725
1471,1.725
1472,1.725
1473,1.725
1474,1.729
1475,1.732
1476,1.732
1477,1.736
1478,1.74
1479,1.743
1480,1.743
1481,1.74
1482,1.74
1483,1.732
1484,1.729
1485,1.729
1486,1.729
1487,1.729
1488,1.732
1489,1.736
1490,1.74
1491,1.743
1492,1.743
1493,1.743
1494,1.743
1495,1.743
1496,1.74
1497,1.736
1498,1.736
1499,1.736
1500,1.736
1501,1.736
1502,1.736
1503,1.732
1504,1.732
1505,1.729
1506,1.729
1507,1.729
1508,1.729
1509,1.732
1510,1.729
1511,1.729
1512,1.732
1513,1.732
1514,1.732
1515,1.729
1516,1.729
1517,1.729
1518,1.729
1519,1.729
1520,1.729
1521,1.729
1522,1.729
1523,1.732
1524,1.736
1525,1.74
1526,1.743
1527,1.747
1528,1.751
1529,1.751
1530,1.751
1531,1.747
1532,1.747
1533,1.743
1534,1.743
1535,1.743
1536,1.743
1537,1.743
1538,1.747
1539,1.747
1540,1.747
1541,1.747
1542,1.747
1543,1.747
1544,1.747
1545,1.74
1546,1.74
1547,1.736
1548,1.736
1549,1.732
1550,1.732
1551,1.736
1552,1.736
1553,1.74
1554,1.74
1555,1.743
1556,1.743
1557,1.743
1558,1.747
1559,1.751
1560,1.754
1561,1.754
1562,1.758
1563,1.758
1564,1.758
1565,1.761
1566,1.761
1567,1.765
1568,1.765
1569,1.769
1570,1.772
1571,1.776
1572,1.776
1573,1.779
1574,1.783
1575,1.783
1576,1.783
1577,1.783
1578,1.787
1579,1.787
1580,1.787
1581,1.79
1582,1.79
1583,1.79
1584,1.794
1585,1.794
1586,1.794
1587,1.794
1588,1.798
1589,1.798
1590,1.798
1591,1.794
1592,1.798
1593,1.801
1594,1.801
1595,1.805
1596,1.808
1597,1.808
1598,1.808
1599,1.805
1600,1.805
1601,1.805
1602,1.801
1603,1.801
1604,1.805
1605,1.805
1606,1.808
1607,1.808
1608,1.808
1609,1.808
1610,1.805
1611,1.805
1612,1.808
1613,1.812
1614,1.816
1615,1.816
1616,1.816
1617,1.816
1618,1.812
1619,1.812
1620,1.808
1621,1.808
1622,1.805
1623,1.805
1624,1.805
1625,1.808
1626,1.812
1627,1.816
1628,1.819
1629,1.823
1630,1.823
1631,1.823
1632,1.823
1633,1.823
1634,1.819
1635,1.816
1636,1.816
1637,1.816
1638,1.816
1639,1.819
1640,1.823
1641,1.826
1642,1.83
1643,1.83
1644,1.83
1645,1.826
1646,1.823
1647,1.816
1648,1.816
1649,1.816
1650,1.819
1651,1.819
1652,1.823
1653,1.823
1654,1.819
1655,1.819
1656,1.816
1657,1.816
1658,1.812
1659,1.816
1660,1.816
1661,1.819
1662,1.823
1663,1.826
1664,1.83
1665,1.83
1666,1.834
1667,1.834
1668,1.83
1669,1.83
1670,1.826
1671,1.826
1672,1.823
1673,1.823
1674,1.826
1675,1.826
1676,1.823
1677,1.823
1678,1.823
1679,1.819
1680,1.816
1681,1.816
1682,1.816
1683,1.816
1684,1.816
1685,1.816
1686,1.816
1687,1.819
1688,1.816
1689,1.816
1690,1.816
1691,1.816
1692,1.816
1693,1.816
1694,1.819
1695,1.816
1696,1.812
1697,1.805
1698,1.801
1699,1.801
1700,1.801
1701,1.801
1702,1.801
1703,1.801
1704,1.801
1705,1.801
1706,1.801
1707,1.805
1708,1.805
1709,1.805
1710,1.805
1711,1.805
1712,1.805
1713,1.801
1714,1.798
1715,1.798
1716,1.798
1717,1.801
1718,1.801
1719,1.808
1720,1.812
1721,1.812
1722,1.812
1723,1.812
1724,1.808
1725,1.808
1726,1.816
1727,1.816
1728,1.816
1729,1.819
1730,1.816
1731,1.816
1732,1.812
1733,1.812
1734,1.808
1735,1.805
1736,1.801
1737,1.794
1738,1.79
1739,1.79
1740,1.794
1741,1.79
1742,1.79
1743,1.787
1744,1.783
1745,1.783
1746,1.779
1747,1.776
1748,1.776
1749,1.776
1750,1.776
1751,1.776
1752,1.769
1753,1.765
1754,1.765
1755,1.765
1756,1.769
1757,1.769
1758,1.769
1759,1.769
1760,1.765
1761,1.765
1762,1.765
1763,1.769
1764,1.769
1765,1.772
1766,1.772
1767,1.776
1768,1.776
1769,1.772
1770,1.765
1771,1.758
1772,1.751
1773,1.743
1774,1.74
1775,1.736
1776,1.732
1777,1.732
1778,1.725
1779,1.707
1780,1.678
1781,1.646
1782,1.599
1783,1.544
1784,1.49
1785,1.45
1786,1.447
1787,1.479
1788,1.555
1789,1.667
1790,1.805
1791,1.964
1792,2.13
1793,2.318
1794,2.517
1795,2.716
1796,2.89
1797,3.035
1798,3.139
1799,3.19
1800,3.19
1801,3.147
1802,3.078
1803,2.998
1804,2.922
1805,2.854
1806,2.781
1807,2.702
1808,2.611
1809,2.517
1810,2.416
1811,2.318
1812,2.221
1813,2.127
1814,2.033
1815,1.953
1816,1.881
1817,1.819
1818,1.765
1819,1.725
1820,1.689
1821,1.664
1822,1.649
1823,1.638
1824,1.628
1825,1.624
1826,1.62
1827,1.617
1828,1.617
1829,1.613
1830,1.613
1831,1.613
1832,1.613
1833,1.606
1834,1.602
1835,1.602
1836,1.602
1837,1.602
1838,1.602
1839,1.602
1840,1.602
1841,1.606
1842,1.606
1843,1.609
1844,1.613
1845,1.617
1846,1.617
1847,1.62
1848,1.624
1849,1.624
1850,1.624
1851,1.62
1852,1.62
1853,1.62
1854,1.62
1855,1.62
1856,1.613
1857,1.609
1858,1.609
1859,1.609
1860,1.609
1861,1.613
1862,1.613
1863,1.613
1864,1.613
1865,1.613
1866,1.613
1867,1.62
1868,1.62
1869,1.624
1870,1.628
1871,1.631
1872,1.631
1873,1.631
1874,1.631
1875,1.631
1876,1.631
1877,1.635
1878,1.638
1879,1.638
1880,1.638
1881,1.642
1882,1.642
1883,1.642
1884,1.642
1885,1.638
1886,1.638
1887,1.638
1888,1.642
1889,1.646
1890,1.649
1891,1.646
1892,1.646
1893,1.646
1894,1.646
1895,1.649
1896,1.653
1897,1.653
1898,1.657
1899,1.657
1900,1.66
1901,1.664
1902,1.664
1903,1.664
1904,1.66
1905,1.66
1906,1.664
1907,1.664
1908,1.664
1909,1.664
1910,1.66
1911,1.66
1912,1.66
1913,1.66
1914,1.66
1915,1.664
1916,1.664
1917,1.664
1918,1.664
1919,1.66
1920,1.664
1921,1.664
1922,1.667
1923,1.667
1924,1.671
1925,1.671
1926,1.671
1927,1.675
1928,1.675
1929,1.678
1930,1.678
1931,1.682
1932,1.682
1933,1.682
1934,1.682
1935,1.682
1936,1.685
1937,1.685
1938,1.689
1939,1.696
1940,1.7
1941,1.704
1942,1.704
1943,1.707
1944,1.711
1945,1.711
1946,1.714
1947,1.714
1948,1.714
1949,1.711
1950,1.714
1951,1.718
1952,1.725
1953,1.729
1954,1.732
1955,1.74
1956,1.743
1957,1.751
1958,1.754
1959,1.758
1960,1.761
1961,1.765
1962,1.769
1963,1.776
1964,1.779
1965,1.783
1966,1.787
1967,1.79
1968,1.794
1969,1.798
1970,1.801
1971,1.801
1972,1.801
1973,1.805
1974,1.808
1975,1.816
1976,1.819
1977,1.823
1978,1.826
1979,1.83
1980,1.83
1981,1.834
1982,1.834
1983,1.834
1984,1.834
1985,1.837
1986,1.837
1987,1.834
1988,1.837
1989,1.837
1990,1.837
1991,1.837
1992,1.841
1993,1.837
1994,1.837
1995,1.834
1996,1.837
1997,1.837
1998,1.841
1999,1.845
2000,1.848
2001,1.848
2002,1.845
2003,1.845
2004,1.845
2005,1.845
2006,1.841
2007,1.837
2008,1.837
2009,1.837
2010,1.837
2011,1.834
2012,1.834
2013,1.83
2014,1.826
2015,1.826
2016,1.823
2017,1.823
2018,1.819
2019,1.816
2020,1.812
2021,1.808
2022,1.805
2023,1.798
2024,1.79
2025,1.787
2026,1.79
2027,1.79
2028,1.798
2029,1.801
2030,1.805
2031,1.805
2032,1.805
2033,1.798
2034,1.79
2035,1.787
2036,1.783
2037,1.776
2038,1.772
2039,1.769
2040,1.769
2041,1.765
2042,1.761
2043,1.761
2044,1.758
2045,1.754
2046,1.754
2047,1.758
2048,1.761
2049,1.761
2050,1.761
2051,1.761
2052,1.761
2053,1.758
2054,1.758
2055,1.761
2056,1.761
2057,1.765
2058,1.765
2059,1.769
2060,1.765
2061,1.765
2062,1.761
2063,1.761
2064,1.758
2065,1.761
2066,1.765
2067,1.769
2068,1.772
2069,1.772
2070,1.772
2071,1.772
2072,1.772
2073,1.772
2074,1.776
2075,1.776
2076,1.772
2077,1.776
2078,1.776
2079,1.776
2080,1.776
2081,1.772
2082,1.769
2083,1.765
2084,1.765
2085,1.769
2086,1.769
2087,1.772
2088,1.779
2089,1.783
2090,1.787
2091,1.783
2092,1.779
2093,1.779
2094,1.776
2095,1.776
2096,1.776
2097,1.779
2098,1.779
2099,1.779
2100,1.783
2101,1.783
2102,1.787
2103,1.787
2104,1.79
2105,1.794
2106,1.798
2107,1.798
2108,1.801
2109,1.801
2110,1.798
2111,1.798
2112,1.801
2113,1.801
2114,1.805
2115,1.805
2116,1.805
2117,1.801
2118,1.798
2119,1.794
2120,1.79
2121,1.794
2122,1.794
2123,1.801
2124,1.805
2125,1.808
2126,1.808
2127,1.812
2128,1.808
2129,1.808
2130,1.808
2131,1.808
2132,1.812
2133,1.816
2134,1.819
2135,1.823
2136,1.826
2137,1.826
2138,1.826
2139,1.823
2140,1.819
2141,1.819
2142,1.819
2143,1.819
2144,1.823
2145,1.823
2146,1.826
2147,1.826
2148,1.823
2149,1.823
2150,1.823
2151,1.823
2152,1.826
2153,1.83
2154,1.834
2155,1.837
2156,1.834
2157,1.837
2158,1.834
2159,1.837
2160,1.837
2161,1.841
2162,1.845
2163,1.848
2164,1.848
2165,1.848
2166,1.848
2167,1.848
2168,1.845
2169,1.841
2170,1.841
2171,1.841
2172,1.845
2173,1.845
2174,1.845
2175,1.848
2176,1.852
2177,1.852
2178,1.855
2179,1.848
2180,1.848
2181,1.852
2182,1.852
2183,1.855
2184,1.852
2185,1.852
2186,1.848
2187,1.848
2188,1.845
2189,1.845
2190,1.852
2191,1.852
2192,1.855
2193,1.855
2194,1.859
2195,1.859
2196,1.863
2197,1.863
2198,1.863
2199,1.863
2200,1.863
2201,1.863
2202,1.859
2203,1.859
2204,1.863
2205,1.866
2206,1.87
2207,1.87
2208,1.87
2209,1.87
2210,1.87
2211,1.87
2212,1.87
2213,1.874
2214,1.866
2215,1.866
2216,1.863
2217,1.859
2218,1.855
2219,1.848
2220,1.841
2221,1.837
2222,1.834
2223,1.83
2224,1.83
2225,1.83
2226,1.83
2227,1.834
2228,1.845
2229,1.855
2230,1.863
2231,1.87
2232,1.874
2233,1.877
2234,1.877
2235,1.877
2236,1.881
2237,1.881
2238,1.884
2239,1.884
2240,1.884
2241,1.884
2242,1.881
2243,1.881
2244,1.884
2245,1.884
2246,1.884
2247,1.884
2248,1.884
2249,1.881
2250,1.881
2251,1.881
2252,1.881
2253,1.877
2254,1.874
2255,1.87
2256,1.866
2257,1.863
2258,1.855
2259,1.852
2260,1.848
2261,1.852
2262,1.852
2263,1.852
2264,1.852
2265,1.852
2266,1.855
2267,1.859
2268,1.863
2269,1.863
2270,1.866
2271,1.866
2272,1.863
2273,1.859
2274,1.859
2275,1.859
2276,1.859
2277,1.859
2278,1.855
2279,1.848
2280,1.845
2281,1.841
2282,1.845
2283,1.841
2284,1.841
2285,1.841
2286,1.837
2287,1.837
2288,1.834
2289,1.83
2290,1.816
2291,1.794
2292,1.761
2293,1.718
2294,1.667
2295,1.609
2296,1.562
2297,1.526
2298,1.519
2299,1.555
2300,1.624
2301,1.722
2302,1.852
2303,2.004
2304,2.17
2305,2.358
2306,2.561
2307,2.752
2308,2.922
2309,3.056
2310,3.147
2311,3.179
2312,3.161
2313,3.107
2314,3.045
2315,2.977
2316,2.915
2317,2.861
2318,2.796
2319,2.723
2320,2.64
2321,2.553
2322,2.459
2323,2.365
2324,2.271
2325,2.177
2326,2.087
2327,2.007
2328,1.942
2329,1.881
2330,1.834
2331,1.794
2332,1.765
2333,1.743
2334,1.725
2335,1.714
2336,1.707
2337,1.7
2338,1.693
2339,1.689
2340,1.682
2341,1.678
2342,1.671
2343,1.671
2344,1.671
2345,1.667
2346,1.664
2347,1.66
2348,1.66
2349,1.657
2350,1.657
2351,1.657
2352,1.649
2353,1.649
2354,1.649
2355,1.653
2356,1.653
2357,1.653
2358,1.653
2359,1.653
2360,1.653
2361,1.649
2362,1.649
2363,1.649
2364,1.646
2365,1.649
2366,1.653
2367,1.653
2368,1.653
2369,1.653
2370,1.649
2371,1.649
2372,1.646
2373,1.646
2374,1.646
2375,1.646
2376,1.646
2377,1.649
2378,1.653
2379,1.657
2380,1.657
2381,1.657
2382,1.653
2383,1.649
2384,1.646
2385,1.642
2386,1.646
2387,1.642
2388,1.646
2389,1.646
2390,1.646
2391,1.649
2392,1.649
2393,1.653
2394,1.653
2395,1.657
2396,1.657
2397,1.657
2398,1.657
2399,1.653
2400,1.649
2401,1.649
2402,1.653
2403,1.653
2404,1.653
2405,1.653
2406,1.653
2407,1.653
2408,1.649
2409,1.649
2410,1.646
2411,1.646
2412,1.649
2413,1.653
2414,1.653
2415,1.653
2416,1.653
2417,1.653
2418,1.649
2419,1.646
2420,1.646
2421,1.646
2422,1.642
2423,1.646
2424,1.646
2425,1.646
2426,1.646
2427,1.646
2428,1.646
2429,1.649
2430,1.649
2431,1.653
2432,1.653
2433,1.653
2434,1.653
2435,1.653
2436,1.653
2437,1.653
2438,1.653
2439,1.653
2440,1.653
2441,1.653
2442,1.653
2443,1.657
2444,1.657
2445,1.657
2446,1.657
2447,1.66
2448,1.66
2449,1.66
2450,1.66
2451,1.664
2452,1.664
2453,1.66
2454,1.66
2455,1.664
2456,1.66
2457,1.66
2458,1.664
2459,1.667
2460,1.671
2461,1.675
2462,1.678
2463,1.678
2464,1.682
2465,1.685
2466,1.685
2467,1.689
2468,1.689
2469,1.689
2470,1.693
2471,1.696
2472,1.696
2473,1.696
2474,1.696
2475,1.696
2476,1.696
2477,1.696
2478,1.7
2479,1.704
2480,1.707
2481,1.714
2482,1.722
2483,1.722
2484,1.725
2485,1.725
2486,1.725
2487,1.722
2488,1.722
2489,1.725
2490,1.729
2491,1.729
2492,1.732
2493,1.736
2494,1.74
2495,1.743
2496,1.747
2497,1.754
2498,1.761
2499,1.765
2500,1.769
2501,1.772
2502,1.769
2503,1.772
2504,1.772
2505,1.772
2506,1.772
2507,1.772
2508,1.776
2509,1.776
2510,1.776
2511,1.772
2512,1.772
2513,1.772
2514,1.769
2515,1.769
2516,1.769
2517,1.769
2518,1.772
2519,1.776
2520,1.779
2521,1.783
2522,1.783
2523,1.787
2524,1.79
2525,1.787
2526,1.787
2527,1.787
2528,1.787
2529,1.787
2530,1.787
2531,1.787
2532,1.783
2533,1.783
2534,1.783
2535,1.779
2536,1.779
2537,1.779
2538,1.783
2539,1.787
2540,1.787
2541,1.787
2542,1.787
2543,1.787
2544,1.783
2545,1.783
2546,1.787
2547,1.79
2548,1.798
2549,1.801
2550,1.805
2551,1.805
2552,1.808
2553,1.808
2554,1.808
2555,1.808
2556,1.808
2557,1.808
2558,1.805
2559,1.805
2560,1.801
2561,1.801
2562,1.801
2563,1.805
2564,1.808
2565,1.812
2566,1.812
2567,1.819
2568,1.823
2569,1.823
2570,1.826
2571,1.826
2572,1.826
2573,1.83
2574,1.834
2575,1.837
2576,1.837
2577,1.837
2578,1.837
2579,1.834
2580,1.834
2581,1.837
2582,1.841
2583,1.845
2584,1.852
2585,1.855
2586,1.863
2587,1.866
2588,1.87
2589,1.874
2590,1.874
2591,1.874
2592,1.877
2593,1.877
2594,1.877
2595,1.877
2596,1.874
2597,1.874
2598,1.87
2599,1.866
2600,1.863
2601,1.859
2602,1.852
2603,1.852
2604,1.852
2605,1.855
2606,1.855
2607,1.859
2608,1.863
2609,1.863
2610,1.863
2611,1.859
2612,1.859
2613,1.859
2614,1.863
2615,1.863
2616,1.859
2617,1.859
2618,1.855
2619,1.855
2620,1.855
2621,1.855
2622,1.859
2623,1.866
2624,1.87
2625,1.877
2626,1.881
2627,1.888
2628,1.888
2629,1.884
2630,1.877
2631,1.874
2632,1.87
2633,1.87
2634,1.866
2635,1.866
2636,1.866
2637,1.866
2638,1.866
2639,1.863
2640,1.863
2641,1.855
2642,1.855
2643,1.855
2644,1.859
2645,1.859
2646,1.863
2647,1.863
2648,1.863
2649,1.863
2650,1.866
2651,1.874
2652,1.874
2653,1.881
2654,1.884
2655,1.888
2656,1.888
2657,1.888
2658,1.892
2659,1.892
2660,1.892
2661,1.892
2662,1.888
2663,1.892
2664,1.888
2665,1.888
2666,1.892
2667,1.888
2668,1.888
2669,1.884
2670,1.884
2671,1.881
2672,1.884
2673,1.884
2674,1.892
2675,1.895
2676,1.899
2677,1.906
2678,1.91
2679,1.913
2680,1.917
2681,1.917
2682,1.917
2683,1.917
2684,1.913
2685,1.913
2686,1.917
2687,1.913
2688,1.917
2689,1.917
2690,1.917
2691,1.921
2692,1.921
2693,1.917
2694,1.913
2695,1.913
2696,1.913
2697,1.913
2698,1.913
2699,1.913
2700,1.913
2701,1.917
2702,1.917
2703,1.917
2704,1.917
2705,1.917
2706,1.917
2707,1.921
2708,1.924
2709,1.931
2710,1.928
2711,1.931
2712,1.931
2713,1.931
2714,1.931
2715,1.928
2716,1.921
2717,1.917
2718,1.91
2719,1.906
2720,1.902
2721,1.902
2722,1.895
2723,1.895
2724,1.895
2725,1.895
2726,1.895
2727,1.902
2728,1.902
2729,1.906
2730,1.906
2731,1.906
2732,1.91
2733,1.91
2734,1.913
2735,1.913
2736,1.913
2737,1.913
2738,1.91
2739,1.91
2740,1.913
2741,1.913
2742,1.921
2743,1.928
2744,1.935
2745,1.939
2746,1.946
2747,1.953
2748,1.953
2749,1.957
2750,1.964
2751,1.968
2752,1.971
2753,1.971
2754,1.971
2755,1.971
2756,1.964
2757,1.964
2758,1.96
2759,1.957
2760,1.953
2761,1.949
2762,1.946
2763,1.946
2764,1.942
2765,1.939
2766,1.935
2767,1.931
2768,1.928
2769,1.924
2770,1.921
2771,1.921
2772,1.917
2773,1.917
2774,1.917
2775,1.917
2776,1.921
2777,1.924
2778,1.924
2779,1.921
2780,1.921
2781,1.921
2782,1.917
2783,1.917
2784,1.913
2785,1.91
2786,1.906
2787,1.906
2788,1.906
2789,1.906
2790,1.902
2791,1.899
2792,1.899
2793,1.899
2794,1.906
2795,1.91
2796,1.913
2797,1.917
2798,1.921
2799,1.917
2800,1.917
2801,1.91
2802,1.895
2803,1.881
2804,1.855
2805,1.83
2806,1.79
2807,1.74
2808,1.682
2809,1.628
2810,1.595
2811,1.588
2812,1.62
2813,1.693
2814,1.794
2815,1.931
2816,2.101
2817,2.3
2818,2.517
2819,2.731
2820,2.93
2821,3.085
2822,3.179
2823,3.208
2824,3.179
2825,3.103
2826,3.02
2827,2.937
2828,2.861
2829,2.792
2830,2.72
2831,2.644
2832,2.564
2833,2.485
2834,2.416
2835,2.351
2836,2.293
2837,2.239
2838,2.185
2839,2.13
2840,2.076
2841,2.029
2842,1.982
2843,1.942
2844,1.906
2845,1.874
2846,1.852
2847,1.834
2848,1.816
2849,1.808
2850,1.801
2851,1.798
2852,1.794
2853,1.79
2854,1.783
2855,1.779
2856,1.776
2857,1.772
2858,1.769
2859,1.772
2860,1.765
2861,1.769
2862,1.769
2863,1.769
2864,1.769
2865,1.765
2866,1.761
2867,1.758
2868,1.751
2869,1.747
2870,1.743
2871,1.74
2872,1.74
2873,1.743
2874,1.743
2875,1.743
2876,1.747
2877,1.747
2878,1.743
2879,1.743
2880,1.74
2881,1.736
2882,1.736
2883,1.729
2884,1.732
2885,1.732
2886,1.736
2887,1.736
2888,1.74
2889,1.74
2890,1.74
2891,1.74
2892,1.736
2893,1.74
2894,1.74
2895,1.74
2896,1.74
2897,1.74
2898,1.74
2899,1.743
2900,1.743
2901,1.74
2902,1.74
2903,1.74
2904,1.74
2905,1.74
2906,1.736
2907,1.74
2908,1.74
2909,1.74
2910,1.74
2911,1.743
2912,1.743
2913,1.74
2914,1.74
2915,1.736
2916,1.736
2917,1.732
2918,1.729
2919,1.729
2920,1.729
2921,1.729
2922,1.732
2923,1.736
2924,1.736
2925,1.732
2926,1.729
2927,1.725
2928,1.725
2929,1.722
2930,1.722
2931,1.722
2932,1.722
2933,1.722
2934,1.722
2935,1.725
2936,1.725
2937,1.725
2938,1.725
2939,1.722
2940,1.725
2941,1.725
2942,1.725
2943,1.729
2944,1.732
2945,1.736
2946,1.736
2947,1.74
2948,1.74
2949,1.74
2950,1.74
2951,1.743
2952,1.74
2953,1.74
2954,1.74
2955,1.74
2956,1.74
2957,1.74
2958,1.74
2959,1.74
2960,1.74
2961,1.74
2962,1.74
2963,1.743
2964,1.747
2965,1.751
2966,1.751
2967,1.754
2968,1.758
2969,1.758
2970,1.758
2971,1.758
2972,1.758
2973,1.758
2974,1.761
2975,1.761
2976,1.761
2977,1.769
2978,1.772
2979,1.776
2980,1.779
2981,1.779
2982,1.779
2983,1.779
2984,1.779
2985,1.783
2986,1.783
2987,1.783
2988,1.783
2989,1.783
2990,1.779
2991,1.779
2992,1.779
2993,1.776
2994,1.776
2995,1.776
2996,1.772
2997,1.776
2998,1.772
2999,1.772
3000,1.776
3001,1.776
3002,1.776
3003,1.776
3004,1.772
3005,1.769
3006,1.769
3007,1.769
3008,1.765
3009,1.769
3010,1.769
3011,1.772
3012,1.776
3013,1.776
3014,1.779
3015,1.779
3016,1.779
3017,1.779
3018,1.779
3019,1.779
3020,1.779
3021,1.776
3022,1.776
3023,1.776
3024,1.772
3025,1.772
3026,1.776
3027,1.776
3028,1.776
3029,1.772
3030,1.772
3031,1.769
3032,1.772
3033,1.769
3034,1.769
3035,1.769
3036,1.772
3037,1.772
3038,1.772
3039,1.776
3040,1.776
3041,1.772
3042,1.772
3043,1.769
3044,1.769
3045,1.765
3046,1.769
3047,1.769
3048,1.772
3049,1.772
3050,1.772
3051,1.772
3052,1.769
3053,1.769
3054,1.769
3055,1.769
3056,1.765
3057,1.765
3058,1.765
3059,1.769
3060,1.769
3061,1.772
3062,1.772
3063,1.776
3064,1.776
3065,1.776
3066,1.779
3067,1.779
3068,1.779
3069,1.779
3070,1.783
3071,1.783
3072,1.787
3073,1.787
3074,1.787
3075,1.787
3076,1.787
3077,1.79
3078,1.79
3079,1.787
3080,1.787
3081,1.787
3082,1.787
3083,1.79
3084,1.79
3085,1.79
3086,1.787
3087,1.783
3088,1.779
3089,1.779
3090,1.776
3091,1.772
3092,1.772
3093,1.776
3094,1.776
3095,1.779
3096,1.783
3097,1.779
3098,1.779
3099,1.779
3100,1.779
3101,1.779
3102,1.776
3103,1.776
3104,1.776
3105,1.779
3106,1.779
3107,1.779
3108,1.779
3109,1.776
3110,1.776
3111,1.779
3112,1.779
3113,1.779
3114,1.779
3115,1.783
3116,1.783
3117,1.783
3118,1.779
3119,1.779
3120,1.776
3121,1.776
3122,1.776
3123,1.776
3124,1.776
3125,1.776
3126,1.776
3127,1.776
3128,1.776
3129,1.772
3130,1.772
3131,1.769
3132,1.769
3133,1.765
3134,1.765
3135,1.765
3136,1.769
3137,1.769
3138,1.772
3139,1.772
3140,1.772
3141,1.772
3142,1.769
3143,1.769
3144,1.765
3145,1.765
3146,1.761
3147,1.765
3148,1.761
3149,1.765
3150,1.765
3151,1.769
3152,1.772
3153,1.772
3154,1.772
3155,1.769
3156,1.769
3157,1.769
3158,1.769
3159,1.769
3160,1.772
3161,1.772
3162,1.776
3163,1.776
3164,1.779
3165,1.779
3166,1.779
3167,1.776
3168,1.772
3169,1.772
3170,1.776
3171,1.772
3172,1.772
3173,1.772
3174,1.772
3175,1.772
3176,1.776
3177,1.776
3178,1.779
3179,1.783
3180,1.787
3181,1.787
3182,1.79
3183,1.787
3184,1.79
3185,1.79
3186,1.79
3187,1.79
3188,1.787
3189,1.783
3190,1.783
3191,1.779
3192,1.779
3193,1.776
3194,1.772
3195,1.772
3196,1.776
3197,1.779
3198,1.779
3199,1.783
3200,1.787
3201,1.787
3202,1.787
3203,1.787
3204,1.783
3205,1.783
3206,1.783
3207,1.783
3208,1.783
3209,1.783
3210,1.783
3211,1.787
3212,1.787
3213,1.79
3214,1.794
3215,1.798
3216,1.805
3217,1.808
3218,1.808
3219,1.816
3220,1.819
3221,1.823
3222,1.826
3223,1.826
3224,1.83
3225,1.83
3226,1.826
3227,1.823
3228,1.823
3229,1.819
3230,1.819
3231,1.819
3232,1.819
3233,1.816
3234,1.816
3235,1.816
3236,1.816
3237,1.812
3238,1.812
3239,1.812
3240,1.812
3241,1.805
3242,1.805
3243,1.801
3244,1.801
3245,1.801
3246,1.801
3247,1.801
3248,1.801
3249,1.801
3250,1.798
3251,1.798
3252,1.794
3253,1.79
3254,1.79
3255,1.787
3256,1.79
3257,1.79
3258,1.79
3259,1.794
3260,1.794
3261,1.79
3262,1.79
3263,1.79
3264,1.79
3265,1.79
3266,1.79
3267,1.79
3268,1.79
3269,1.79
3270,1.787
3271,1.787
3272,1.783
3273,1.783
3274,1.779
3275,1.776
3276,1.765
3277,1.747
3278,1.722
3279,1.685
3280,1.635
3281,1.577
3282,1.523
3283,1.479
3284,1.468
3285,1.494
3286,1.562
3287,1.667
3288,1.805
3289,1.971
3290,2.156
3291,2.362
3292,2.582
3293,2.792
3294,2.973
3295,3.114
3296,3.204
3297,3.233
3298,3.197
3299,3.132
3300,3.045
3301,2.955
3302,2.872
3303,2.792
3304,2.709
3305,2.622
3306,2.535
3307,2.449
3308,2.369
3309,2.293
3310,2.21
3311,2.134
3312,2.058
3313,1.989
3314,1.924
3315,1.87
3316,1.823
3317,1.783
3318,1.751
3319,1.725
3320,1.707
3321,1.689
3322,1.678
3323,1.671
3324,1.667
3325,1.66
3326,1.657
3327,1.649
3328,1.646
3329,1.642
3330,1.638
3331,1.635
3332,1.638
3333,1.638
3334,1.642
3335,1.642
3336,1.642
3337,1.638
3338,1.638
3339,1.635
3340,1.631
3341,1.628
3342,1.628
3343,1.624
3344,1.624
3345,1.624
3346,1.624
3347,1.624
3348,1.624
3349,1.624
3350,1.624
3351,1.628
3352,1.631
3353,1.635
3354,1.635
3355,1.638
3356,1.635
3357,1.635
3358,1.631
3359,1.635
3360,1.631
3361,1.631
3362,1.628
3363,1.628
3364,1.624
3365,1.624
3366,1.624
3367,1.624
3368,1.624
3369,1.628
3370,1.631
3371,1.631
3372,1.635
3373,1.642
3374,1.646
3375,1.646
3376,1.642
3377,1.638
3378,1.642
3379,1.638
3380,1.638
3381,1.638
3382,1.635
3383,1.635
3384,1.635
3385,1.631
3386,1.635
3387,1.635
3388,1.638
3389,1.638
3390,1.642
3391,1.638
3392,1.642
3393,1.642
3394,1.646
3395,1.646
3396,1.642
3397,1.642
3398,1.642
3399,1.638
3400,1.635
3401,1.635
3402,1.635
3403,1.638
3404,1.638
3405,1.642
3406,1.642
3407,1.642
3408,1.642
3409,1.638
3410,1.638
3411,1.638
3412,1.638
3413,1.638
3414,1.635
3415,1.635
3416,1.631
3417,1.631
3418,1.628
3419,1.631
3420,1.631
3421,1.635
3422,1.638
3423,1.642
3424,1.646
3425,1.646
3426,1.649
3427,1.653
3428,1.653
3429,1.653
3430,1.653
3431,1.653
3432,1.657
3433,1.657
3434,1.657
3435,1.653
3436,1.657
3437,1.657
3438,1.66
3439,1.667
3440,1.671
3441,1.675
3442,1.678
3443,1.678
3444,1.682
3445,1.682
3446,1.685
3447,1.689
3448,1.689
3449,1.696
3450,1.704
3451,1.707
3452,1.711
3453,1.711
3454,1.714
3455,1.714
3456,1.714
3457,1.714
3458,1.722
3459,1.729
3460,1.732
3461,1.74
3462,1.743
3463,1.751
3464,1.751
3465,1.751
3466,1.751
3467,1.754
3468,1.754
3469,1.754
3470,1.758
3471,1.754
3472,1.754
3473,1.758
3474,1.758
3475,1.765
3476,1.765
3477,1.769
3478,1.769
3479,1.769
3480,1.769
3481,1.769
3482,1.772
3483,1.769
3484,1.769
3485,1.769
3486,1.769
3487,1.772
3488,1.776
3489,1.776
3490,1.779
3491,1.783
3492,1.787
3493,1.794
3494,1.794
3495,1.798
3496,1.805
3497,1.812
3498,1.816
3499,1.819
3500,1.819
3501,1.816
3502,1.808
3503,1.801
3504,1.798
3505,1.794
3506,1.79
3507,1.79
3508,1.787
3509,1.787
3510,1.783
3511,1.779
3512,1.776
3513,1.772
3514,1.772
3515,1.776
3516,1.776
3517,1.776
3518,1.776
3519,1.779
3520,1.776
3521,1.772
3522,1.769
3523,1.769
3524,1.765
3525,1.765
3526,1.765
3527,1.769
3528,1.772
3529,1.769
3530,1.772
3531,1.772
3532,1.772
3533,1.772
3534,1.772
3535,1.772
3536,1.769
3537,1.769
3538,1.769
3539,1.772
3540,1.776
3541,1.776
3542,1.776
3543,1.779
3544,1.783
3545,1.783
3546,1.787
3547,1.79
3548,1.79
3549,1.79
3550,1.79
3551,1.794
3552,1.79
3553,1.794
3554,1.794
3555,1.798
3556,1.805
3557,1.805
3558,1.805
3559,1.805
3560,1.801
3561,1.798
3562,1.794
3563,1.79
3564,1.787
3565,1.79
3566,1.79
3567,1.794
3568,1.798
3569,1.798
3570,1.798
3571,1.798
3572,1.798
3573,1.801
3574,1.801
3575,1.805
3576,1.808
3577,1.812
3578,1.812
3579,1.812
3580,1.812
3581,1.808
3582,1.808
3583,1.808
3584,1.812
3585,1.812
3586,1.812
3587,1.808
3588,1.808
3589,1.808
3590,1.808
3591,1.808
3592,1.808
3593,1.805
3594,1.805
3595,1.805
3596,1.805
3597,1.805
3598,1.801
3599,1.801
3600,1.805
3601,1.805
3602,1.805
3603,1.805
3604,1.808
3605,1.808
3606,1.812
3607,1.812
3608,1.812
3609,1.812
3610,1.812
3611,1.816
3612,1.816
3613,1.819
3614,1.823
3615,1.823
3616,1.823
3617,1.819
3618,1.816
3619,1.808
3620,1.808
3621,1.805
3622,1.805
3623,1.808
3624,1.812
3625,1.808
3626,1.808
3627,1.805
3628,1.801
3629,1.798
3630,1.794
3631,1.794
3632,1.798
3633,1.798
3634,1.805
3635,1.808
3636,1.812
3637,1.812
3638,1.812
3639,1.812
3640,1.816
3641,1.819
3642,1.819
3643,1.826
3644,1.823
3645,1.823
3646,1.823
3647,1.823
3648,1.819
3649,1.819
3650,1.819
3651,1.816
3652,1.816
3653,1.816
3654,1.816
3655,1.812
3656,1.808
3657,1.812
3658,1.812
3659,1.816
3660,1.816
3661,1.816
3662,1.816
3663,1.812
3664,1.808
3665,1.808
3666,1.808
3667,1.805
3668,1.805
3669,1.801
3670,1.805
3671,1.805
3672,1.805
3673,1.805
3674,1.805
3675,1.801
3676,1.805
3677,1.805
3678,1.808
3679,1.808
3680,1.808
3681,1.808
3682,1.808
3683,1.805
3684,1.801
3685,1.798
3686,1.794
3687,1.79
3688,1.79
3689,1.79
3690,1.794
3691,1.801
3692,1.805
3693,1.808
3694,1.805
3695,1.801
3696,1.801
3697,1.798
3698,1.794
3699,1.794
3700,1.79
3701,1.794
3702,1.79
3703,1.794
3704,1.794
3705,1.794
3706,1.794
3707,1.79
3708,1.79
3709,1.787
3710,1.787
3711,1.787
3712,1.79
3713,1.79
3714,1.787
3715,1.787
3716,1.787
3717,1.783
3718,1.783
3719,1.779
3720,1.776
3721,1.776
3722,1.776
3723,1.779
3724,1.783
3725,1.787
3726,1.794
3727,1.798
3728,1.805
3729,1.808
3730,1.812
3731,1.812
3732,1.812
3733,1.812
3734,1.812
3735,1.812
3736,1.812
3737,1.812
3738,1.816
3739,1.819
3740,1.823
3741,1.826
3742,1.823
3743,1.823
3744,1.819
3745,1.816
3746,1.816
3747,1.816
3748,1.808
3749,1.808
3750,1.808
3751,1.805
3752,1.805
3753,1.801
3754,1.798
3755,1.794
3756,1.794
3757,1.794
3758,1.794
3759,1.798
3760,1.801
3761,1.805
3762,1.808
3763,1.808
3764,1.808
3765,1.808
3766,1.808
3767,1.805
3768,1.805
3769,1.801
3770,1.801
3771,1.798
3772,1.798
3773,1.798
3774,1.801
3775,1.801
3776,1.801
3777,1.805
3778,1.805
3779,1.801
3780,1.801
3781,1.801
3782,1.798
3783,1.79
3784,1.783
3785,1.769
3786,1.747
3787,1.718
3788,1.675
3789,1.62
3790,1.566
3791,1.519
3792,1.497
3793,1.515
3794,1.57
3795,1.664
3796,1.787
3797,1.935
3798,2.105
3799,2.289
3800,2.496
3801,2.695
3802,2.868
3803,3.016
3804,3.114
3805,3.161
3806,3.143
3807,3.089
3808,3.024
3809,2.955
3810,2.886
3811,2.821
3812,2.756
3813,2.684
3814,2.604
3815,2.525
3816,2.445
3817,2.355
3818,2.264
3819,2.177
3820,2.094
3821,2.015
3822,1.946
3823,1.888
3824,1.837
3825,1.801
3826,1.769
3827,1.747
3828,1.729
3829,1.714
3830,1.707
3831,1.704
3832,1.704
3833,1.7
3834,1.7
3835,1.7
3836,1.693
3837,1.685
3838,1.678
3839,1.675
3840,1.671
3841,1.671
3842,1.675
3843,1.675
3844,1.675
3845,1.678
3846,1.678
3847,1.678
3848,1.675
3849,1.671
3850,1.671
3851,1.671
3852,1.667
3853,1.667
3854,1.671
3855,1.667
3856,1.667
3857,1.664
3858,1.657
3859,1.653
3860,1.649
3861,1.649
3862,1.653
3863,1.653
3864,1.653
3865,1.657
3866,1.657
3867,1.657
3868,1.657
3869,1.657
3870,1.657
3871,1.657
3872,1.657
3873,1.657
3874,1.66
3875,1.657
3876,1.657
3877,1.657
3878,1.657
3879,1.653
3880,1.653
3881,1.653
3882,1.653
3883,1.653
3884,1.653
3885,1.649
3886,1.649
3887,1.646
3888,1.646
3889,1.646
3890,1.646
3891,1.646
3892,1.646
3893,1.642
3894,1.642
3895,1.638
3896,1.638
3897,1.638
3898,1.635
3899,1.635
3900,1.635
3901,1.635
3902,1.635
3903,1.638
3904,1.638
3905,1.638
3906,1.635
3907,1.635
3908,1.635
3909,1.635
3910,1.635
3911,1.638
3912,1.638
3913,1.642
3914,1.642
3915,1.638
3916,1.638
3917,1.638
3918,1.638
3919,1.638
3920,1.638
3921,1.635
3922,1.635
3923,1.635
3924,1.635
3925,1.631
3926,1.631
3927,1.631
3928,1.628
3929,1.628
3930,1.624
3931,1.624
3932,1.628
3933,1.628
3934,1.628
3935,1.631
3936,1.631
3937,1.631
3938,1.631
3939,1.635
3940,1.635
3941,1.638
3942,1.638
3943,1.642
3944,1.642
3945,1.646
3946,1.649
3947,1.649
3948,1.649
3949,1.653
3950,1.653
3951,1.653
3952,1.653
3953,1.653
3954,1.657
3955,1.66
3956,1.66
3957,1.664
3958,1.671
3959,1.675
3960,1.675
3961,1.678
3962,1.678
3963,1.678
3964,1.678
3965,1.678
3966,1.682
3967,1.682
3968,1.689
3969,1.693
3970,1.696
3971,1.7
3972,1.704
3973,1.704
3974,1.707
3975,1.711
3976,1.714
3977,1.718
3978,1.725
3979,1.729
3980,1.732
3981,1.736
3982,1.736
3983,1.74
3984,1.743
3985,1.747
3986,1.754
3987,1.761
3988,1.765
3989,1.772
3990,1.772
3991,1.772
3992,1.776
3993,1.776
3994,1.779
3995,1.779
3996,1.783
3997,1.787
3998,1.787
3999,1.79
4000,1.794
4001,1.798
4002,1.798
4003,1.801
4004,1.801
4005,1.805
4006,1.805
4007,1.805
4008,1.808
4009,1.808
4010,1.808
4011,1.808
4012,1.808
4013,1.808
4014,1.808
4015,1.812
4016,1.816
4017,1.823
4018,1.826
4019,1.826
4020,1.826
4021,1.826
4022,1.826
4023,1.826
4024,1.83
4025,1.826
4026,1.826
4027,1.826
4028,1.826
4029,1.83
4030,1.83
4031,1.83
4032,1.83
4033,1.834
4034,1.834
4035,1.837
4036,1.837
4037,1.837
4038,1.845
4039,1.848
4040,1.848
4041,1.848
4042,1.845
4043,1.845
4044,1.845
4045,1.845
4046,1.841
4047,1.841
4048,1.837
4049,1.841
4050,1.841
4051,1.841
4052,1.841
4053,1.841
4054,1.845
4055,1.848
4056,1.852
4057,1.852
4058,1.855
4059,1.855
4060,1.855
4061,1.855
4062,1.852
4063,1.852
4064,1.848
4065,1.845
4066,1.845
4067,1.845
4068,1.845
4069,1.845
4070,1.845
4071,1.845
4072,1.848
4073,1.852
4074,1.855
4075,1.859
4076,1.859
4077,1.859
4078,1.863
4079,1.863
4080,1.863
4081,1.866
4082,1.866
4083,1.866
4084,1.874
4085,1.874
4086,1.874
4087,1.874
4088,1.87
4089,1.87
4090,1.863
4091,1.859
4092,1.859
4093,1.863
4094,1.863
4095,1.866
4096,1.87
4097,1.874
4098,1.874
4099,1.877
4100,1.877
4101,1.881
4102,1.881
4103,1.881
4104,1.881
4105,1.881
4106,1.877
4107,1.877
4108,1.877
4109,1.877
4110,1.877
4111,1.877
4112,1.877
4113,1.877
4114,1.877
4115,1.877
4116,1.877
4117,1.877
4118,1.881
4119,1.884
4120,1.884
4121,1.884
4122,1.884
4123,1.884
4124,1.884
4125,1.881
4126,1.877
4127,1.877
4128,1.881
4129,1.877
4130,1.881
4131,1.884
4132,1.892
4133,1.892
4134,1.895
4135,1.899
4136,1.899
4137,1.899
4138,1.895
4139,1.899
4140,1.895
4141,1.895
4142,1.895
4143,1.899
4144,1.899
4145,1.902
4146,1.899
4147,1.895
4148,1.892
4149,1.888
4150,1.888
4151,1.892
4152,1.895
4153,1.899
4154,1.906
4155,1.91
4156,1.91
4157,1.91
4158,1.91
4159,1.906
4160,1.902
4161,1.902
4162,1.906
4163,1.902
4164,1.902
4165,1.899
4166,1.902
4167,1.902
4168,1.902
4169,1.902
4170,1.906
4171,1.913
4172,1.917
4173,1.921
4174,1.924
4175,1.917
4176,1.917
4177,1.913
4178,1.91
4179,1.91
4180,1.906
4181,1.906
4182,1.906
4183,1.91
4184,1.91
4185,1.91
4186,1.906
4187,1.906
4188,1.906
4189,1.902
4190,1.902
4191,1.902
4192,1.899
4193,1.895
4194,1.892
4195,1.888
4196,1.884
4197,1.884
4198,1.881
4199,1.884
4200,1.884
4201,1.888
4202,1.892
4203,1.895
4204,1.895
4205,1.895
4206,1.895
4207,1.895
4208,1.902
4209,1.906
4210,1.906
4211,1.913
4212,1.913
4213,1.917
4214,1.917
4215,1.913
4216,1.906
4217,1.899
4218,1.892
4219,1.884
4220,1.877
4221,1.87
4222,1.866
4223,1.866
4224,1.87
4225,1.877
4226,1.888
4227,1.895
4228,1.902
4229,1.906
4230,1.91
4231,1.913
4232,1.913
4233,1.913
4234,1.917
4235,1.921
4236,1.924
4237,1.928
4238,1.931
4239,1.931
4240,1.935
4241,1.939
4242,1.942
4243,1.946
4244,1.942
4245,1.946
4246,1.949
4247,1.949
4248,1.946
4249,1.942
4250,1.939
4251,1.928
4252,1.917
4253,1.906
4254,1.899
4255,1.895
4256,1.895
4257,1.895
4258,1.899
4259,1.899
4260,1.902
4261,1.902
4262,1.899
4263,1.899
4264,1.895
4265,1.892
4266,1.892
4267,1.888
4268,1.888
4269,1.892
4270,1.895
4271,1.895
4272,1.895
4273,1.895
4274,1.895
4275,1.892
4276,1.892
4277,1.884
4278,1.888
4279,1.884
4280,1.881
4281,1.877
4282,1.877
4283,1.874
4284,1.87
4285,1.87
4286,1.866
4287,1.859
4288,1.848
4289,1.834
4290,1.812
4291,1.783
4292,1.743
4293,1.693
4294,1.642
4295,1.602
4296,1.584
4297,1.599
4298,1.646
4299,1.732
4300,1.848
4301,2.004
4302,2.185
4303,2.394
4304,2.611
4305,2.814
4306,2.991
4307,3.114
4308,3.168
4309,3.157
4310,3.1
4311,3.016
4312,2.933
4313,2.846
4314,2.778
4315,2.713
4316,2.64
4317,2.568
4318,2.492
4319,2.42
4320,2.355
4321,2.289
4322,2.224
4323,2.166
4324,2.112
4325,2.054
4326,2.007
4327,1.964
4328,1.924
4329,1.892
4330,1.863
4331,1.837
4332,1.819
4333,1.805
4334,1.794
4335,1.79
4336,1.783
4337,1.779
4338,1.779
4339,1.772
4340,1.769
4341,1.761
4342,1.758
4343,1.754
4344,1.751
4345,1.747
4346,1.74
4347,1.736
4348,1.729
4349,1.725
4350,1.722
4351,1.718
4352,1.722
4353,1.718
4354,1.718
4355,1.718
4356,1.714
4357,1.714
4358,1.714
4359,1.707
4360,1.707
4361,1.711
4362,1.714
4363,1.718
4364,1.718
4365,1.718
4366,1.718
4367,1.718
4368,1.718
4369,1.722
4370,1.725
4371,1.722
4372,1.722
4373,1.722
4374,1.722
4375,1.718
4376,1.718
4377,1.714
4378,1.714
4379,1.714
4380,1.714
4381,1.714
4382,1.714
4383,1.714
4384,1.714
4385,1.714
4386,1.714
4387,1.714
4388,1.711
4389,1.714
4390,1.714
4391,1.714
4392,1.714
4393,1.718
4394,1.714
4395,1.718
4396,1.714
4397,1.711
4398,1.707
4399,1.707
4400,1.704
4401,1.704
4402,1.704
4403,1.704
4404,1.704
4405,1.707
4406,1.707
4407,1.711
4408,1.718
4409,1.725
4410,1.729
4411,1.729
4412,1.729
4413,1.725
4414,1.722
4415,1.718
4416,1.718
4417,1.714
4418,1.714
4419,1.714
4420,1.718
4421,1.722
4422,1.725
4423,1.725
4424,1.729
4425,1.729
4426,1.732
4427,1.736
4428,1.74
4429,1.74
4430,1.74
4431,1.743
4432,1.743
4433,1.743
4434,1.743
4435,1.743
4436,1.743
4437,1.747
4438,1.751
4439,1.758
4440,1.761
4441,1.765
4442,1.776
4443,1.783
4444,1.79
4445,1.794
4446,1.794
4447,1.798
4448,1.801
4449,1.805
4450,1.812
4451,1.819
4452,1.823
4453,1.826
4454,1.83
4455,1.83
4456,1.834
4457,1.834
4458,1.834
4459,1.837
4460,1.841
4461,1.845
4462,1.852
4463,1.852
4464,1.852
4465,1.855
4466,1.855
4467,1.859
4468,1.859
4469,1.855
4470,1.852
4471,1.852
4472,1.848
4473,1.848
4474,1.848
4475,1.848
4476,1.852
4477,1.855
4478,1.855
4479,1.859
4480,1.855
4481,1.855
4482,1.852
4483,1.852
4484,1.848
4485,1.855
4486,1.855
4487,1.859
4488,1.863
4489,1.866
4490,1.863
4491,1.863
4492,1.859
4493,1.855
4494,1.855
4495,1.852
4496,1.852
4497,1.855
4498,1.852
4499,1.852
4500,1.852
4501,1.852
4502,1.848
4503,1.845
4504,1.845
4505,1.845
4506,1.845
4507,1.845
4508,1.845
4509,1.841
4510,1.837
4511,1.837
4512,1.837
4513,1.837
4514,1.837
4515,1.841
4516,1.841
4517,1.841
4518,1.841
4519,1.841
4520,1.841
4521,1.837
4522,1.837
4523,1.837
4524,1.837
4525,1.834
4526,1.837
4527,1.837
4528,1.837
4529,1.837
4530,1.834
4531,1.837
4532,1.837
4533,1.834
4534,1.837
4535,1.837
4536,1.841
4537,1.845
4538,1.848
4539,1.848
4540,1.848
4541,1.845
4542,1.841
4543,1.841
4544,1.837
4545,1.841
4546,1.841
4547,1.845
4548,1.848
4549,1.848
4550,1.848
4551,1.848
4552,1.848
4553,1.845
4554,1.845
4555,1.845
4556,1.841
4557,1.841
4558,1.841
4559,1.837
4560,1.837
4561,1.837
4562,1.837
4563,1.837
4564,1.834
4565,1.83
4566,1.83
4567,1.823
4568,1.823
4569,1.823
4570,1.823
4571,1.819
4572,1.819
4573,1.816
4574,1.816
4575,1.808
4576,1.805
4577,1.805
4578,1.801
4579,1.798
4580,1.794
4581,1.794
4582,1.794
4583,1.794
4584,1.794
4585,1.794
4586,1.79
4587,1.787
4588,1.783
4589,1.779
4590,1.776
4591,1.772
4592,1.769
4593,1.765
4594,1.765
4595,1.761
4596,1.758
4597,1.754
4598,1.754
4599,1.754
4600,1.751
4601,1.754
4602,1.758
4603,1.761
4604,1.761
4605,1.761
4606,1.761
4607,1.758
4608,1.754
4609,1.751
4610,1.747
4611,1.743
4612,1.743
4613,1.743
4614,1.743
4615,1.743
4616,1.743
4617,1.74
4618,1.74
4619,1.736
4620,1.736
4621,1.736
4622,1.736
4623,1.736
4624,1.74
4625,1.74
4626,1.74
4627,1.74
4628,1.736
4629,1.736
4630,1.732
4631,1.732
4632,1.729
4633,1.729
4634,1.725
4635,1.725
4636,1.722
4637,1.722
4638,1.722
4639,1.722
4640,1.722
4641,1.722
4642,1.725
4643,1.725
4644,1.725
4645,1.722
4646,1.722
4647,1.722
4648,1.722
4649,1.722
4650,1.725
4651,1.725
4652,1.725
4653,1.725
4654,1.725
4655,1.722
4656,1.718
4657,1.718
4658,1.714
4659,1.711
4660,1.707
4661,1.711
4662,1.711
4663,1.714
4664,1.714
4665,1.714
4666,1.718
4667,1.718
4668,1.718
4669,1.714
4670,1.718
4671,1.714
4672,1.711
4673,1.711
4674,1.711
4675,1.711
4676,1.711
4677,1.714
4678,1.714
4679,1.714
4680,1.714
4681,1.714
4682,1.714
4683,1.714
4684,1.714
4685,1.714
4686,1.714
4687,1.711
4688,1.711
4689,1.711
4690,1.711
4691,1.711
4692,1.711
4693,1.718
4694,1.722
4695,1.729
4696,1.736
4697,1.743
4698,1.747
4699,1.751
4700,1.754
4701,1.758
4702,1.758
4703,1.761
4704,1.765
4705,1.765
4706,1.761
4707,1.761
4708,1.761
4709,1.761
4710,1.761
4711,1.761
4712,1.761
4713,1.758
4714,1.758
4715,1.758
4716,1.758
4717,1.754
4718,1.758
4719,1.758
4720,1.758
4721,1.758
4722,1.751
4723,1.747
4724,1.743
4725,1.74
4726,1.74
4727,1.74
4728,1.743
4729,1.743
4730,1.747
4731,1.751
4732,1.754
4733,1.754
4734,1.754
4735,1.754
4736,1.758
4737,1.758
4738,1.758
4739,1.761
4740,1.761
4741,1.765
4742,1.769
4743,1.769
4744,1.769
4745,1.769
4746,1.769
4747,1.769
4748,1.772
4749,1.769
4750,1.772
4751,1.772
4752,1.772
4753,1.772
4754,1.772
4755,1.769
4756,1.761
4757,1.743
4758,1.714
4759,1.678
4760,1.631
4761,1.577
4762,1.526
4763,1.487
4764,1.476
4765,1.508
4766,1.573
4767,1.671
4768,1.801
4769,1.957
4770,2.134
4771,2.336
4772,2.557
4773,2.77
4774,2.962
4775,3.118
4776,3.226
4777,3.27
4778,3.248
4779,3.179
4780,3.096
4781,2.998
4782,2.904
4783,2.821
4784,2.734
4785,2.644
4786,2.546
4787,2.456
4788,2.373
4789,2.289
4790,2.21
4791,2.13
4792,2.051
4793,1.982
4794,1.917
4795,1.863
4796,1.816
4797,1.779
4798,1.743
4799,1.718
4800,1.696
4801,1.678
4802,1.664
4803,1.657
4804,1.649
4805,1.646
4806,1.646
4807,1.642
4808,1.642
4809,1.635
4810,1.631
4811,1.631
4812,1.628
4813,1.624
4814,1.62
4815,1.613
4816,1.609
4817,1.606
4818,1.602
4819,1.602
4820,1.602
4821,1.602
4822,1.599
4823,1.602
4824,1.602
4825,1.602
4826,1.606
4827,1.606
4828,1.606
4829,1.602
4830,1.599
4831,1.595
4832,1.591
4833,1.591
4834,1.591
4835,1.591
4836,1.591
4837,1.591
4838,1.588
4839,1.584
4840,1.584
4841,1.584
4842,1.588
4843,1.591
4844,1.591
4845,1.595
4846,1.595
4847,1.599
4848,1.599
4849,1.599
4850,1.599
4851,1.595
4852,1.595
4853,1.599
4854,1.599
4855,1.599
4856,1.602
4857,1.602
4858,1.602
4859,1.602
4860,1.599
4861,1.599
4862,1.602
4863,1.599
4864,1.599
4865,1.595
4866,1.595
4867,1.591
4868,1.591
4869,1.595
4870,1.595
4871,1.599
4872,1.599
4873,1.599
4874,1.602
4875,1.602
4876,1.602
4877,1.602
4878,1.602
4879,1.599
4880,1.599
4881,1.602
4882,1.602
4883,1.602
4884,1.606
4885,1.606
4886,1.609
4887,1.609
4888,1.609
4889,1.613
4890,1.613
4891,1.617
4892,1.62
4893,1.624
4894,1.624
4895,1.624
4896,1.624
4897,1.62
4898,1.62
4899,1.62
4900,1.624
4901,1.628
4902,1.628
4903,1.631
4904,1.635
4905,1.635
4906,1.638
4907,1.638
4908,1.638
4909,1.642
4910,1.642
4911,1.642
4912,1.646
4913,1.642
4914,1.638
4915,1.638
4916,1.642
4917,1.642
4918,1.642
4919,1.642
4920,1.646
4921,1.646
4922,1.649
4923,1.653
4924,1.653
4925,1.653
4926,1.653
4927,1.657
4928,1.66
4929,1.664
4930,1.667
4931,1.671
4932,1.675
4933,1.678
4934,1.682
4935,1.685
4936,1.685
4937,1.693
4938,1.696
4939,1.704
4940,1.707
4941,1.711
4942,1.714
4943,1.711
4944,1.711
4945,1.707
4946,1.711
4947,1.718
4948,1.722
4949,1.729
4950,1.732
4951,1.74
4952,1.743
4953,1.743
4954,1.747
4955,1.754
4956,1.761
4957,1.765
4958,1.772
4959,1.769
4960,1.765
4961,1.761
4962,1.758
4963,1.758
4964,1.754
4965,1.758
4966,1.761
4967,1.772
4968,1.779
4969,1.787
4970,1.787
4971,1.779
4972,1.772
4973,1.769
4974,1.765
4975,1.769
4976,1.769
4977,1.769
4978,1.769
4979,1.765
4980,1.761
4981,1.761
4982,1.754
4983,1.751
4984,1.754
4985,1.758
4986,1.758
4987,1.758
4988,1.758
4989,1.754
4990,1.747
4991,1.74
4992,1.732
4993,1.729
4994,1.725
4995,1.729
4996,1.732
4997,1.732
4998,1.732
4999,1.732
5000,1.732
5001,1.732
5002,1.729
5003,1.725
5004,1.725
5005,1.725
5006,1.725
5007,1.729
5008,1.736
5009,1.74
5010,1.743
5011,1.743
5012,1.74
5013,1.736
5014,1.732
5015,1.732
5016,1.732
5017,1.725
5018,1.725
5019,1.725
5020,1.725
5021,1.725
5022,1.725
5023,1.722
5024,1.722
5025,1.718
5026,1.718
5027,1.718
5028,1.718
5029,1.718
5030,1.725
5031,1.732
5032,1.736
5033,1.736
5034,1.736
5035,1.732
5036,1.729
5037,1.725
5038,1.718
5039,1.714
5040,1.707
5041,1.704
5042,1.696
5043,1.696
5044,1.696
5045,1.696
5046,1.696
5047,1.7
5048,1.7
5049,1.704
5050,1.7
5051,1.696
5052,1.685
5053,1.678
5054,1.675
5055,1.675
5056,1.671
5057,1.671
5058,1.675
5059,1.685
5060,1.693
5061,1.704
5062,1.718
5063,1.725
5064,1.732
5065,1.736
5066,1.74
5067,1.74
5068,1.736
5069,1.732
5070,1.729
5071,1.725
5072,1.722
5073,1.718
5074,1.714
5075,1.714
5076,1.714
5077,1.714
5078,1.711
5079,1.707
5080,1.704
5081,1.696
5082,1.693
5083,1.693
5084,1.693
5085,1.696
5086,1.693
5087,1.693
5088,1.693
5089,1.693
5090,1.693
5091,1.696
5092,1.696
5093,1.696
5094,1.696
5095,1.693
5096,1.689
5097,1.689
5098,1.685
5099,1.685
5100,1.685
5101,1.682
5102,1.682
5103,1.682
5104,1.685
5105,1.693
5106,1.696
5107,1.704
5108,1.711
5109,1.722
5110,1.732
5111,1.747
5112,1.758
5113,1.769
5114,1.776
5115,1.783
5116,1.787
5117,1.79
5118,1.787
5119,1.783
5120,1.779
5121,1.772
5122,1.772
5123,1.776
5124,1.783
5125,1.79
5126,1.798
5127,1.801
5128,1.805
5129,1.805
5130,1.805
5131,1.812
5132,1.812
5133,1.816
5134,1.823
5135,1.83
5136,1.834
5137,1.834
5138,1.834
5139,1.83
5140,1.826
5141,1.819
5142,1.819
5143,1.812
5144,1.801
5145,1.798
5146,1.794
5147,1.794
5148,1.794
5149,1.798
5150,1.798
5151,1.801
5152,1.805
5153,1.808
5154,1.816
5155,1.816
5156,1.816
5157,1.819
5158,1.819
5159,1.816
5160,1.812
5161,1.808
5162,1.808
5163,1.805
5164,1.805
5165,1.805
5166,1.808
5167,1.805
5168,1.808
5169,1.812
5170,1.816
5171,1.823
5172,1.826
5173,1.83
5174,1.826
5175,1.819
5176,1.816
5177,1.812
5178,1.808
5179,1.808
5180,1.812
5181,1.812
5182,1.812
5183,1.812
5184,1.816
5185,1.812
5186,1.812
5187,1.812
5188,1.816
5189,1.823
5190,1.823
5191,1.819
5192,1.819
5193,1.816
5194,1.812
5195,1.808
5196,1.808
5197,1.812
5198,1.816
5199,1.823
5200,1.841
5201,1.852
5202,1.863
5203,1.874
5204,1.881
5205,1.884
5206,1.884
5207,1.884
5208,1.881
5209,1.877
5210,1.877
5211,1.881
5212,1.884
5213,1.888
5214,1.892
5215,1.895
5216,1.895
5217,1.892
5218,1.888
5219,1.884
5220,1.884
5221,1.881
5222,1.881
5223,1.881
5224,1.884
5225,1.881
5226,1.884
5227,1.892
5228,1.895
5229,1.895
5230,1.892
5231,1.884
5232,1.881
5233,1.877
5234,1.877
5235,1.881
5236,1.877
5237,1.881
5238,1.884
5239,1.881
5240,1.877
5241,1.874
5242,1.874
5243,1.877
5244,1.884
5245,1.892
5246,1.899
5247,1.899
5248,1.899
5249,1.895
5250,1.895
5251,1.892
5252,1.888
5253,1.888
5254,1.888
5255,1.895
5256,1.899
5257,1.899
5258,1.899
5259,1.892
5260,1.881
5261,1.87
5262,1.859
5263,1.841
5264,1.823
5265,1.79
5266,1.751
5267,1.7
5268,1.649
5269,1.606
5270,1.588
5271,1.602
5272,1.657
5273,1.743
5274,1.863
5275,2.004
5276,2.163
5277,2.336
5278,2.528
5279,2.72
5280,2.897
5281,3.053
5282,3.168
5283,3.248
5284,3.273
5285,3.248
5286,3.186
5287,3.118
5288,3.045
5289,2.977
5290,2.908
5291,2.832
5292,2.745
5293,2.655
5294,2.557
5295,2.463
5296,2.369
5297,2.279
5298,2.188
5299,2.105
5300,2.025
5301,1.964
5302,1.91
5303,1.866
5304,1.834
5305,1.801
5306,1.779
5307,1.761
5308,1.751
5309,1.74
5310,1.732
5311,1.725
5312,1.718
5313,1.714
5314,1.711
5315,1.707
5316,1.707
5317,1.707
5318,1.711
5319,1.718
5320,1.722
5321,1.729
5322,1.732
5323,1.732
5324,1.729
5325,1.725
5326,1.722
5327,1.718
5328,1.711
5329,1.707
5330,1.707
5331,1.704
5332,1.7
5333,1.696
5334,1.689
5335,1.685
5336,1.685
5337,1.685
5338,1.682
5339,1.682
5340,1.682
5341,1.689
5342,1.7
5343,1.711
5344,1.722
5345,1.725
5346,1.722
5347,1.718
5348,1.714
5349,1.711
5350,1.707
5351,1.704
5352,1.704
5353,1.707
5354,1.707
5355,1.714
5356,1.714
5357,1.714
5358,1.707
5359,1.704
5360,1.696
5361,1.693
5362,1.693
5363,1.689
5364,1.689
5365,1.685
5366,1.678
5367,1.671
5368,1.667
5369,1.664
5370,1.664
5371,1.667
5372,1.671
5373,1.678
5374,1.678
5375,1.675
5376,1.675
5377,1.675
5378,1.675
5379,1.675
5380,1.675
5381,1.671
5382,1.671
5383,1.671
5384,1.667
5385,1.664
5386,1.657
5387,1.653
5388,1.653
5389,1.657
5390,1.657
5391,1.66
5392,1.664
5393,1.664
5394,1.667
5395,1.667
5396,1.671
5397,1.671
5398,1.671
5399,1.678
5400,1.682
5401,1.682
5402,1.682
5403,1.682
5404,1.678
5405,1.675
5406,1.671
5407,1.671
5408,1.671
5409,1.664
5410,1.664
5411,1.664
5412,1.664
5413,1.66
5414,1.657
5415,1.653
5416,1.657
5417,1.66
5418,1.667
5419,1.678
5420,1.685
5421,1.685
5422,1.689
5423,1.693
5424,1.696
5425,1.693
5426,1.689
5427,1.685
5428,1.678
5429,1.675
5430,1.671
5431,1.675
5432,1.675
5433,1.682
5434,1.685
5435,1.696
5436,1.704
5437,1.711
5438,1.711
5439,1.711
5440,1.711
5441,1.707
5442,1.7
5443,1.7
5444,1.693
5445,1.696
5446,1.696
5447,1.7
5448,1.704
5449,1.711
5450,1.722
5451,1.729
5452,1.736
5453,1.743
5454,1.747
5455,1.751
5456,1.754
5457,1.754
5458,1.758
5459,1.758
5460,1.761
5461,1.769
5462,1.772
5463,1.776
5464,1.776
5465,1.776
5466,1.779
5467,1.783
5468,1.787
5469,1.79
5470,1.794
5471,1.794
5472,1.798
5473,1.801
5474,1.805
5475,1.805
5476,1.808
5477,1.812
5478,1.812
5479,1.816
5480,1.816
5481,1.816
5482,1.812
5483,1.812
5484,1.816
5485,1.819
5486,1.823
5487,1.823
5488,1.823
5489,1.826
5490,1.823
5491,1.823
5492,1.823
5493,1.823
5494,1.823
5495,1.823
5496,1.826
5497,1.83
5498,1.83
5499,1.83
5500,1.83
5501,1.826
5502,1.826
5503,1.826
5504,1.826
5505,1.83
5506,1.83
5507,1.83
5508,1.834
5509,1.837
5510,1.837
5511,1.837
5512,1.837
5513,1.834
5514,1.834
5515,1.837
5516,1.837
5517,1.841
5518,1.845
5519,1.848
5520,1.852
5521,1.852
5522,1.855
5523,1.859
5524,1.859
5525,1.852
5526,1.848
5527,1.841
5528,1.837
5529,1.83
5530,1.826
5531,1.826
5532,1.826
5533,1.834
5534,1.841
5535,1.852
5536,1.852
5537,1.855
5538,1.855
5539,1.852
5540,1.852
5541,1.852
5542,1.852
5543,1.855
5544,1.855
5545,1.852
5546,1.852
5547,1.848
5548,1.845
5549,1.848
5550,1.848
5551,1.848
5552,1.855
5553,1.863
5554,1.87
5555,1.87
5556,1.87
5557,1.866
5558,1.863
5559,1.859
5560,1.863
5561,1.863
5562,1.866
5563,1.87
5564,1.87
5565,1.87
5566,1.87
5567,1.866
5568,1.863
5569,1.859
5570,1.859
5571,1.859
5572,1.866
5573,1.87
5574,1.877
5575,1.877
5576,1.881
5577,1.877
5578,1.874
5579,1.866
5580,1.863
5581,1.866
5582,1.866
5583,1.874
5584,1.877
5585,1.881
5586,1.877
5587,1.874
5588,1.87
5589,1.87
5590,1.87
5591,1.87
5592,1.874
5593,1.87
5594,1.866
5595,1.863
5596,1.863
5597,1.859
5598,1.863
5599,1.866
5600,1.866
5601,1.866
5602,1.866
5603,1.863
5604,1.863
5605,1.859
5606,1.859
5607,1.859
5608,1.859
5609,1.859
5610,1.863
5611,1.863
5612,1.863
5613,1.866
5614,1.866
5615,1.863
5616,1.863
5617,1.859
5618,1.855
5619,1.852
5620,1.848
5621,1.845
5622,1.837
5623,1.837
5624,1.837
5625,1.841
5626,1.845
5627,1.845
5628,1.841
5629,1.841
5630,1.845
5631,1.845
5632,1.848
5633,1.852
5634,1.855
5635,1.855
5636,1.855
5637,1.855
5638,1.852
5639,1.852
5640,1.852
5641,1.852
5642,1.855
5643,1.863
5644,1.866
5645,1.87
5646,1.874
5647,1.874
5648,1.874
5649,1.874
5650,1.877
5651,1.87
5652,1.866
5653,1.863
5654,1.859
5655,1.863
5656,1.863
5657,1.87
5658,1.877
5659,1.884
5660,1.888
5661,1.895
5662,1.899
5663,1.899
5664,1.899
5665,1.895
5666,1.892
5667,1.888
5668,1.892
5669,1.895
5670,1.895
5671,1.899
5672,1.899
5673,1.899
5674,1.899
5675,1.902
5676,1.91
5677,1.913
5678,1.917
5679,1.917
5680,1.913
5681,1.913
5682,1.913
5683,1.913
5684,1.913
5685,1.917
5686,1.921
5687,1.928
5688,1.931
5689,1.931
5690,1.935
5691,1.931
5692,1.924
5693,1.917
5694,1.913
5695,1.91
5696,1.917
5697,1.917
5698,1.921
5699,1.924
5700,1.928
5701,1.928
5702,1.928
5703,1.928
5704,1.924
5705,1.924
5706,1.924
5707,1.924
5708,1.928
5709,1.928
5710,1.931
5711,1.935
5712,1.939
5713,1.942
5714,1.946
5715,1.949
5716,1.957
5717,1.96
5718,1.964
5719,1.968
5720,1.968
5721,1.971
5722,1.975
5723,1.978
5724,1.982
5725,1.982
5726,1.986
5727,1.989
5728,1.996
5729,2.007
5730,2.015
5731,2.018
5732,2.015
5733,2.007
5734,2.0
5735,1.996
5736,1.989
5737,1.989
5738,1.982
5739,1.982
5740,1.978
5741,1.975
5742,1.975
5743,1.975
5744,1.975
5745,1.975
5746,1.975
5747,1.975
5748,1.968
5749,1.964
5750,1.964
5751,1.964
5752,1.964
5753,1.96
5754,1.964
5755,1.96
5756,1.96
5757,1.96
5758,1.96
5759,1.96
5760,1.957
5761,1.953
5762,1.953
5763,1.957
5764,1.96
5765,1.964
5766,1.971
5767,1.978
5768,1.986
5769,1.986
5770,1.986
5771,1.986
5772,1.978
5773,1.971
5774,1.957
5775,1.939
5776,1.913
5777,1.884
5778,1.845
5779,1.798
5780,1.743
5781,1.689
5782,1.646
5783,1.631
5784,1.649
5785,1.704
5786,1.79
5787,1.906
5788,2.054
5789,2.232
5790,2.434
5791,2.651
5792,2.857
5793,3.042
5794,3.176
5795,3.244
5796,3.241
5797,3.179
5798,3.1
5799,3.016
5800,2.94
5801,2.868
5802,2.81
5803,2.749
5804,2.684
5805,2.608
5806,2.535
5807,2.463
5808,2.391
5809,2.322
5810,2.253
5811,2.192
5812,2.134
5813,2.076
5814,2.025
5815,1.986
5816,1.949
5817,1.924
5818,1.902
5819,1.888
5820,1.881
5821,1.874
5822,1.874
5823,1.874
5824,1.863
5825,1.855
5826,1.848
5827,1.837
5828,1.826
5829,1.819
5830,1.812
5831,1.808
5832,1.805
5833,1.801
5834,1.801
5835,1.798
5836,1.79
5837,1.787
5838,1.783
5839,1.783
5840,1.779
5841,1.776
5842,1.772
5843,1.772
5844,1.772
5845,1.765
5846,1.761
5847,1.758
5848,1.754
5849,1.754
5850,1.754
5851,1.758
5852,1.761
5853,1.765
5854,1.765
5855,1.765
5856,1.769
5857,1.772
5858,1.772
5859,1.772
5860,1.772
5861,1.776
5862,1.779
5863,1.779
5864,1.783
5865,1.787
5866,1.787
5867,1.787
5868,1.787
5869,1.79
5870,1.794
5871,1.794
5872,1.798
5873,1.801
5874,1.801
5875,1.801
5876,1.801
5877,1.798
5878,1.79
5879,1.783
5880,1.779
5881,1.779
5882,1.776
5883,1.776
5884,1.776
5885,1.779
5886,1.779
5887,1.779
5888,1.783
5889,1.783
5890,1.783
5891,1.783
5892,1.787
5893,1.783
5894,1.779
5895,1.783
5896,1.783
5897,1.783
5898,1.779
5899,1.779
5900,1.779
5901,1.783
5902,1.787
5903,1.79
5904,1.794
5905,1.794
5906,1.798
5907,1.798
5908,1.801
5909,1.805
5910,1.801
5911,1.798
5912,1.794
5913,1.79
5914,1.79
5915,1.787
5916,1.787
5917,1.787
5918,1.79
5919,1.794
5920,1.801
5921,1.805
5922,1.808
5923,1.808
5924,1.805
5925,1.801
5926,1.798
5927,1.798
5928,1.794
5929,1.794
5930,1.79
5931,1.79
5932,1.787
5933,1.783
5934,1.783
5935,1.779
5936,1.779
5937,1.779
5938,1.783
5939,1.787
5940,1.787
5941,1.787
5942,1.787
5943,1.787
5944,1.787
5945,1.79
5946,1.794
5947,1.798
5948,1.801
5949,1.805
5950,1.808
5951,1.805
5952,1.801
5953,1.801
5954,1.798
5955,1.794
5956,1.79
5957,1.79
5958,1.79
5959,1.79
5960,1.79
5961,1.794
5962,1.794
5963,1.787
5964,1.783
5965,1.776
5966,1.772
5967,1.772
5968,1.772
5969,1.772
5970,1.776
5971,1.779
5972,1.783
5973,1.787
5974,1.783
5975,1.787
5976,1.79
5977,1.794
5978,1.801
5979,1.801
5980,1.801
5981,1.798
5982,1.794
5983,1.79
5984,1.79
5985,1.794
5986,1.798
5987,1.801
5988,1.805
5989,1.801
5990,1.798
5991,1.79
5992,1.787
5993,1.783
5994,1.783
5995,1.783
5996,1.787
5997,1.787
5998,1.794
5999,1.798
6000,1.801
6001,1.798
6002,1.798
6003,1.79
6004,1.79
6005,1.787
6006,1.783
6007,1.783
6008,1.79
6009,1.794
6010,1.798
6011,1.801
6012,1.805
6013,1.805
6014,1.801
6015,1.794
6016,1.79
6017,1.79
6018,1.79
6019,1.79
6020,1.794
6021,1.798
6022,1.798
6023,1.798
6024,1.798
6025,1.798
6026,1.794
6027,1.79
6028,1.79
6029,1.79
6030,1.79
6031,1.79
6032,1.79
6033,1.794
6034,1.798
6035,1.801
6036,1.805
6037,1.808
6038,1.808
6039,1.805
6040,1.805
6041,1.798
6042,1.798
6043,1.79
6044,1.787
6045,1.787
6046,1.787
6047,1.79
6048,1.794
6049,1.801
6050,1.805
6051,1.808
6052,1.812
6053,1.816
6054,1.819
6055,1.819
6056,1.819
6057,1.816
6058,1.808
6059,1.801
6060,1.798
6061,1.79
6062,1.79
6063,1.79
6064,1.79
6065,1.798
6066,1.801
6067,1.801
6068,1.805
6069,1.805
6070,1.798
6071,1.794
6072,1.79
6073,1.787
6074,1.787
6075,1.783
6076,1.783
6077,1.787
6078,1.779
6079,1.779
6080,1.783
6081,1.783
6082,1.787
6083,1.787
6084,1.787
6085,1.787
6086,1.779
6087,1.776
6088,1.772
6089,1.765
6090,1.761
6091,1.758
6092,1.758
6093,1.758
6094,1.758
6095,1.754
6096,1.754
6097,1.754
6098,1.758
6099,1.761
6100,1.765
6101,1.769
6102,1.772
6103,1.772
6104,1.769
6105,1.769
6106,1.765
6107,1.765
6108,1.765
6109,1.765
6110,1.765
6111,1.765
6112,1.761
6113,1.754
6114,1.751
6115,1.751
6116,1.747
6117,1.743
6118,1.74
6119,1.736
6120,1.736
6121,1.74
6122,1.743
6123,1.751
6124,1.747
6125,1.747
6126,1.747
6127,1.747
6128,1.751
6129,1.747
6130,1.747
6131,1.743
6132,1.74
6133,1.736
6134,1.732
6135,1.732
6136,1.732
6137,1.732
6138,1.732
6139,1.732
6140,1.732
6141,1.732
6142,1.729
6143,1.725
6144,1.725
6145,1.722
6146,1.725
6147,1.722
6148,1.725
6149,1.725
6150,1.729
6151,1.729
6152,1.729
6153,1.729
6154,1.725
6155,1.725
6156,1.722
6157,1.718
6158,1.718
6159,1.714
6160,1.714
6161,1.714
6162,1.711
6163,1.707
6164,1.704
6165,1.696
6166,1.693
6167,1.689
6168,1.685
6169,1.685
6170,1.682
6171,1.685
6172,1.689
6173,1.693
6174,1.7
6175,1.704
6176,1.707
6177,1.707
6178,1.704
6179,1.7
6180,1.696
6181,1.696
6182,1.696
6183,1.7
6184,1.711
6185,1.714
6186,1.722
6187,1.722
6188,1.722
6189,1.722
6190,1.718
6191,1.718
6192,1.725
6193,1.732
6194,1.732
6195,1.732
6196,1.729
6197,1.722
6198,1.718
6199,1.711
6200,1.707
6201,1.707
6202,1.704
6203,1.7
6204,1.7
6205,1.7
6206,1.7
6207,1.696
6208,1.689
6209,1.685
6210,1.678
6211,1.667
6212,1.657
6213,1.653
6214,1.646
6215,1.649
6216,1.649
6217,1.653
6218,1.657
6219,1.664
6220,1.667
6221,1.667
6222,1.664
6223,1.66
6224,1.649
6225,1.642
6226,1.635
6227,1.631
6228,1.624
6229,1.62
6230,1.617
6231,1.617
6232,1.613
6233,1.613
6234,1.613
6235,1.613
6236,1.613
6237,1.609
6238,1.606
6239,1.602
6240,1.595
6241,1.591
6242,1.591
6243,1.591
6244,1.584
6245,1.57
6246,1.548
6247,1.515
6248,1.472
6249,1.421
6250,1.367
6251,1.313
6252,1.273
6253,1.259
6254,1.28
6255,1.342
6256,1.439
6257,1.573
6258,1.732
6259,1.91
6260,2.101
6261,2.311
6262,2.532
6263,2.723
6264,2.886
6265,3.009
6266,3.074
6267,3.082
6268,3.031
6269,2.951
6270,2.857
6271,2.756
6272,2.662
6273,2.568
6274,2.463
6275,2.362
6276,2.257
6277,2.159
6278,2.065
6279,1.975
6280,1.888
6281,1.801
6282,1.718
6283,1.642
6284,1.577
6285,1.523
6286,1.476
6287,1.439
6288,1.411
6289,1.389
6290,1.371
6291,1.353
6292,1.342
6293,1.331
6294,1.324
6295,1.317
6296,1.309
6297,1.302
6298,1.298
6299,1.295
6300,1.288
6301,1.284
6302,1.277
6303,1.273
6304,1.27
6305,1.262
6306,1.259
6307,1.255
6308,1.251
6309,1.248
6310,1.244
6311,1.241
6312,1.244
6313,1.244
6314,1.244
6315,1.241
6316,1.237
6317,1.233
6318,1.23
6319,1.226
6320,1.222
6321,1.222
6322,1.222
6323,1.222
6324,1.219
6325,1.219
6326,1.215
6327,1.215
6328,1.215
6329,1.208
6330,1.201
6331,1.197
6332,1.194
6333,1.194
6334,1.197
6335,1.201
6336,1.201
6337,1.201
6338,1.197
6339,1.19
6340,1.186
6341,1.186
6342,1.183
6343,1.179
6344,1.175
6345,1.172
6346,1.168
6347,1.165
6348,1.165
6349,1.165
6350,1.161
6351,1.161
6352,1.157
6353,1.154
6354,1.154
6355,1.15
6356,1.147
6357,1.147
6358,1.147
6359,1.147
6360,1.143
6361,1.136
6362,1.125
6363,1.118
6364,1.107
6365,1.096
6366,1.089
6367,1.081
6368,1.081
6369,1.081
6370,1.085
6371,1.085
6372,1.089
6373,1.089
6374,1.089
6375,1.085
6376,1.078
6377,1.078
6378,1.074
6379,1.071
6380,1.071
6381,1.071
6382,1.071
6383,1.067
6384,1.063
6385,1.056
6386,1.049
6387,1.038
6388,1.034
6389,1.031
6390,1.031
6391,1.031
6392,1.034
6393,1.038
6394,1.042
6395,1.042
6396,1.042
6397,1.038
6398,1.034
6399,1.031
6400,1.027
6401,1.024
6402,1.02
6403,1.02
6404,1.016
6405,1.016
6406,1.016
6407,1.013
6408,1.005
6409,1.005
6410,1.002
6411,1.005
6412,1.009
6413,1.009
6414,1.005
6415,1.005
6416,1.005
6417,1.005
6418,1.005
6419,1.005
6420,1.005
6421,1.005
6422,1.002
6423,1.002
6424,1.002
6425,1.005
6426,1.009
6427,1.013
6428,1.013
6429,1.013
6430,1.013
6431,1.009
6432,1.005
6433,1.002
6434,1.002
6435,1.002
6436,1.002
6437,1.002
6438,1.005
6439,1.009
6440,1.013
6441,1.016
6442,1.02
6443,1.024
6444,1.027
6445,1.024
6446,1.027
6447,1.024
6448,1.02
6449,1.024
6450,1.027
6451,1.027
6452,1.027
6453,1.027
6454,1.027
6455,1.024
6456,1.024
6457,1.024
6458,1.027
6459,1.027
6460,1.031
6461,1.031
6462,1.031
6463,1.027
6464,1.024
6465,1.016
6466,1.013
6467,1.005
6468,1.002
6469,0.9982
6470,0.9946
6471,0.9946
6472,0.9982
6473,0.9982
6474,0.9982
6475,0.9982
6476,1.002
6477,1.002
6478,1.002
6479,1.002
6480,0.9946
6481,0.9874
6482,0.9838
6483,0.9838
6484,0.9838
6485,0.9838
6486,0.9838
6487,0.9802
6488,0.9765
6489,0.9729
6490,0.9693
6491,0.9657
6492,0.9657
6493,0.9621
6494,0.9657
6495,0.9693
6496,0.9729
6497,0.9693
6498,0.9657
6499,0.9585
6500,0.9585
6501,0.9548
6502,0.9476
6503,0.9404
6504,0.9368
6505,0.9331
6506,0.9331
6507,0.9368
6508,0.9368
6509,0.9404
6510,0.9404
6511,0.9404
6512,0.9331
6513,0.9295
6514,0.9223
6515,0.9187
6516,0.9114
6517,0.9114
6518,0.9078
6519,0.9078
6520,0.9078
6521,0.9078
6522,0.9078
6523,0.9078
6524,0.9114
6525,0.9151
6526,0.9151
6527,0.9151
6528,0.9151
6529,0.9114
6530,0.9114
6531,0.9078
6532,0.9078
6533,0.9114
6534,0.9151
6535,0.9151
6536,0.9151
6537,0.9114
6538,0.9042
6539,0.897
6540,0.8897
6541,0.8861
6542,0.8825
6543,0.8825
6544,0.8861
6545,0.8897
6546,0.8934
6547,0.897
6548,0.8934
6549,0.8897
6550,0.8861
6551,0.8861
6552,0.8861
6553,0.8861
6554,0.8897
6555,0.8934
6556,0.897
6557,0.897
6558,0.897
6559,0.8934
6560,0.8934
6561,0.8934
6562,0.8897
6563,0.8861
6564,0.8861
6565,0.8861
6566,0.8825
6567,0.8753
6568,0.8717
6569,0.868
6570,0.868
6571,0.8753
6572,0.8825
6573,0.8861
6574,0.8934
6575,0.8934
6576,0.8934
6577,0.8897
6578,0.8861
6579,0.8861
6580,0.8825
6581,0.8825
6582,0.8825
6583,0.8789
6584,0.8753
6585,0.8717
6586,0.8717
6587,0.8789
6588,0.8897
6589,0.897
6590,0.9078
6591,0.9151
6592,0.9223
6593,0.9223
6594,0.9223
6595,0.9187
6596,0.9151
6597,0.9114
6598,0.9078
6599,0.9078
6600,0.9114
6601,0.9151
6602,0.9151
6603,0.9223
6604,0.9259
6605,0.9259
6606,0.9259
6607,0.9223
6608,0.9187
6609,0.9151
6610,0.9114
6611,0.9078
6612,0.9078
6613,0.9078
6614,0.9114
6615,0.9078
6616,0.9114
6617,0.9114
6618,0.9114
6619,0.9151
6620,0.9187
6621,0.9223
6622,0.9295
6623,0.9295
6624,0.9331
6625,0.9295
6626,0.9259
6627,0.9223
6628,0.9187
6629,0.9187
6630,0.9187
6631,0.9223
6632,0.9223
6633,0.9259
6634,0.9259
6635,0.9295
6636,0.9295
6637,0.9295
6638,0.9331
6639,0.9331
6640,0.9368
6641,0.9331
6642,0.9331
6643,0.9295
6644,0.9331
6645,0.9331
6646,0.9368
6647,0.9404
6648,0.9404
6649,0.944
6650,0.9476
6651,0.9512
6652,0.9512
6653,0.9548
6654,0.9548
6655,0.9512
6656,0.9512
6657,0.9476
6658,0.9476
6659,0.9512
6660,0.9548
6661,0.9585
6662,0.9621
6663,0.9621
6664,0.9621
6665,0.9657
6666,0.9621
6667,0.9657
6668,0.9693
6669,0.9729
6670,0.9765
6671,0.9802
6672,0.9802
6673,0.9802
6674,0.9765
6675,0.9729
6676,0.9729
6677,0.9802
6678,0.9874
6679,1.002
6680,1.013
6681,1.027
6682,1.034
6683,1.038
6684,1.042
6685,1.045
6686,1.045
6687,1.045
6688,1.049
6689,1.052
6690,1.052
6691,1.052
6692,1.052
6693,1.052
6694,1.052
6695,1.052
6696,1.056
6697,1.06
6698,1.063
6699,1.067
6700,1.067
6701,1.067
6702,1.067
6703,1.067
6704,1.067
6705,1.067
6706,1.063
6707,1.063
6708,1.063
6709,1.063
6710,1.063
6711,1.067
6712,1.067
6713,1.071
6714,1.074
6715,1.078
6716,1.081
6717,1.085
6718,1.085
6719,1.085
6720,1.085
6721,1.085
6722,1.085
6723,1.085
6724,1.089
6725,1.092
6726,1.092
6727,1.096
6728,1.1
6729,1.103
6730,1.107
6731,1.107
6732,1.11
6733,1.11
6734,1.114
6735,1.114
6736,1.114
6737,1.114
6738,1.114
6739,1.114
6740,1.107
6741,1.1
6742,1.081
6743,1.056
6744,1.027
6745,0.9874
6746,0.944
6747,0.9006
6748,0.8717
6749,0.8717
6750,0.9078
6751,0.9838
6752,1.092
6753,1.237
6754,1.414
6755,1.606
6756,1.812
6757,2.036
6758,2.25
6759,2.427
6760,2.575
6761,2.68
6762,2.731
6763,2.72
6764,2.666
6765,2.586
6766,2.496
6767,2.405
6768,2.318
6769,2.235
6770,2.141
6771,2.043
6772,1.942
6773,1.845
6774,1.751
6775,1.657
6776,1.57
6777,1.483
6778,1.403
6779,1.335
6780,1.28
6781,1.237
6782,1.201
6783,1.175
6784,1.161
6785,1.15
6786,1.147
6787,1.143
6788,1.143
6789,1.136
6790,1.132
6791,1.128
6792,1.128
6793,1.125
6794,1.128
6795,1.132
6796,1.132
6797,1.136
6798,1.136
6799,1.139
6800,1.147
6801,1.154
6802,1.157
6803,1.154
6804,1.157
6805,1.154
6806,1.154
6807,1.157
6808,1.161
6809,1.168
6810,1.175
6811,1.179
6812,1.183
6813,1.186
6814,1.186
6815,1.186
6816,1.186
6817,1.186
6818,1.194
6819,1.197
6820,1.201
6821,1.204
6822,1.208
6823,1.215
6824,1.222
6825,1.233
6826,1.241
6827,1.248
6828,1.251
6829,1.251
6830,1.255
6831,1.255
6832,1.259
6833,1.262
6834,1.262
6835,1.262
6836,1.262
6837,1.259
6838,1.266
6839,1.27
6840,1.277
6841,1.284
6842,1.295
6843,1.306
6844,1.313
6845,1.317
6846,1.32
6847,1.324
6848,1.327
6849,1.331
6850,1.335
6851,1.335
6852,1.338
6853,1.335
6854,1.338
6855,1.342
6856,1.342
6857,1.345
6858,1.353
6859,1.356
6860,1.364
6861,1.367
6862,1.371
6863,1.374
6864,1.378
6865,1.378
6866,1.378
6867,1.382
6868,1.382
6869,1.389
6870,1.396
6871,1.403
6872,1.411
6873,1.414
6874,1.418
6875,1.421
6876,1.425
6877,1.429
6878,1.432
6879,1.439
6880,1.447
6881,1.45
6882,1.458
6883,1.461
6884,1.465
6885,1.465
6886,1.465
6887,1.468
6888,1.472
6889,1.476
6890,1.483
6891,1.487
6892,1.49
6893,1.497
6894,1.501
6895,1.508
6896,1.515
6897,1.515
6898,1.519
6899,1.523
6900,1.526
6901,1.53
6902,1.53
6903,1.534
6904,1.534
6905,1.537
6906,1.544
6907,1.552
6908,1.562
6909,1.566
6910,1.573
6911,1.581
6912,1.584
6913,1.588
6914,1.595
6915,1.599
6916,1.602
6917,1.606
6918,1.606
6919,1.609
6920,1.606
6921,1.609
6922,1.617
6923,1.628
6924,1.638
6925,1.653
6926,1.667
6927,1.678
6928,1.685
6929,1.696
6930,1.707
6931,1.714
6932,1.718
6933,1.725
6934,1.729
6935,1.74
6936,1.751
6937,1.758
6938,1.769
6939,1.772
6940,1.776
6941,1.779
6942,1.783
6943,1.787
6944,1.794
6945,1.798
6946,1.805
6947,1.808
6948,1.812
6949,1.816
6950,1.819
6951,1.823
6952,1.826
6953,1.83
6954,1.837
6955,1.841
6956,1.852
6957,1.859
6958,1.866
6959,1.87
6960,1.877
6961,1.877
6962,1.877
6963,1.874
6964,1.874
6965,1.874
6966,1.877
6967,1.884
6968,1.892
6969,1.895
6970,1.899
6971,1.899
6972,1.899
6973,1.899
6974,1.902
6975,1.91
6976,1.921
6977,1.931
6978,1.942
6979,1.953
6980,1.96
6981,1.968
6982,1.968
6983,1.964
6984,1.96
6985,1.957
6986,1.957
6987,1.953
6988,1.953
6989,1.949
6990,1.949
6991,1.957
6992,1.96
6993,1.964
6994,1.971
6995,1.975
6996,1.978
6997,1.982
6998,1.982
6999,1.982
7000,1.986
7001,1.986
7002,1.989
7003,1.996
7004,2.004
7005,2.011
7006,2.015
7007,2.018
7008,2.022
7009,2.022
7010,2.018
7011,2.018
7012,2.011
7013,2.011
7014,2.015
7015,2.018
7016,2.025
7017,2.029
7018,2.033
7019,2.036
7020,2.04
7021,2.04
7022,2.043
7023,2.047
7024,2.047
7025,2.051
7026,2.054
7027,2.058
7028,2.058
7029,2.062
7030,2.062
7031,2.062
7032,2.062
7033,2.062
7034,2.065
7035,2.065
7036,2.065
7037,2.065
7038,2.069
7039,2.069
7040,2.072
7041,2.072
7042,2.072
7043,2.069
7044,2.069
7045,2.069
7046,2.08
7047,2.087
7048,2.098
7049,2.109
7050,2.112
7051,2.116
7052,2.116
7053,2.116
7054,2.119
7055,2.119
7056,2.116
7057,2.119
7058,2.112
7059,2.116
7060,2.119
7061,2.123
7062,2.127
7063,2.13
7064,2.134
7065,2.138
7066,2.141
7067,2.141
7068,2.138
7069,2.141
7070,2.141
7071,2.141
7072,2.141
7073,2.141
7074,2.141
7075,2.141
7076,2.138
7077,2.134
7078,2.134
7079,2.134
7080,2.141
7081,2.145
7082,2.152
7083,2.159
7084,2.163
7085,2.163
7086,2.159
7087,2.152
7088,2.148
7089,2.148
7090,2.152
7091,2.156
7092,2.163
7093,2.163
7094,2.166
7095,2.163
7096,2.163
7097,2.163
7098,2.163
7099,2.163
7100,2.159
7101,2.159
7102,2.159
7103,2.163
7104,2.159
7105,2.159
7106,2.163
7107,2.163
7108,2.163
7109,2.163
7110,2.166
7111,2.166
7112,2.166
7113,2.17
7114,2.17
7115,2.174
7116,2.174
7117,2.174
7118,2.174
7119,2.17
7120,2.17
7121,2.17
7122,2.17
7123,2.166
7124,2.163
7125,2.163
7126,2.163
7127,2.159
7128,2.163
7129,2.17
7130,2.177
7131,2.181
7132,2.181
7133,2.181
7134,2.177
7135,2.174
7136,2.166
7137,2.163
7138,2.163
7139,2.163
7140,2.166
7141,2.17
7142,2.17
7143,2.174
7144,2.174
7145,2.174
7146,2.17
7147,2.163
7148,2.163
7149,2.163
7150,2.159
7151,2.163
7152,2.166
7153,2.17
7154,2.166
7155,2.163
7156,2.159
7157,2.159
7158,2.163
7159,2.163
7160,2.166
7161,2.17
7162,2.17
7163,2.17
7164,2.17
7165,2.166
7166,2.163
7167,2.159
7168,2.159
7169,2.156
7170,2.152
7171,2.148
7172,2.145
7173,2.141
7174,2.141
7175,2.141
7176,2.145
7177,2.145
7178,2.145
7179,2.141
7180,2.141
7181,2.145
7182,2.148
7183,2.152
7184,2.156
7185,2.156
7186,2.159
7187,2.159
7188,2.159
7189,2.152
7190,2.145
7191,2.138
7192,2.134
7193,2.13
7194,2.13
7195,2.138
7196,2.138
7197,2.141
7198,2.138
7199,2.138
7200,2.138
7201,2.134
7202,2.138
7203,2.138
7204,2.138
7205,2.138
7206,2.138
7207,2.138
7208,2.134
7209,2.13
7210,2.13
7211,2.13
7212,2.13
7213,2.134
7214,2.141
7215,2.152
7216,2.159
7217,2.166
7218,2.174
7219,2.166
7220,2.166
7221,2.166
7222,2.17
7223,2.174
7224,2.177
7225,2.181
7226,2.177
7227,2.177
7228,2.177
7229,2.177
7230,2.177
7231,2.177
7232,2.177
7233,2.177
7234,2.181
7235,2.181
7236,2.181
7237,2.177
7238,2.174
7239,2.17
7240,2.163
7241,2.159
7242,2.148
7243,2.141
7244,2.138
7245,2.138
7246,2.138
7247,2.138
7248,2.138
7249,2.138
7250,2.138
7251,2.134
7252,2.138
7253,2.138
7254,2.138
7255,2.141
7256,2.145
7257,2.148
7258,2.148
7259,2.145
7260,2.141
7261,2.138
7262,2.13
7263,2.123
7264,2.119
7265,2.112
7266,2.112
7267,2.116
7268,2.123
7269,2.123
7270,2.127
7271,2.127
7272,2.123
7273,2.119
7274,2.109
7275,2.091
7276,2.062
7277,2.025
7278,1.982
7279,1.928
7280,1.874
7281,1.823
7282,1.801
7283,1.816
7284,1.866
7285,1.949
7286,2.062
7287,2.206
7288,2.365
7289,2.546
7290,2.745
7291,2.959
7292,3.157
7293,3.32
7294,3.447
7295,3.516
7296,3.523
7297,3.479
7298,3.407
7299,3.331
7300,3.244
7301,3.172
7302,3.103
7303,3.031
7304,2.948
7305,2.861
7306,2.77
7307,2.676
7308,2.586
7309,2.496
7310,2.412
7311,2.329
7312,2.257
7313,2.199
7314,2.148
7315,2.105
7316,2.069
7317,2.043
7318,2.022
7319,2.004
7320,1.989
7321,1.982
7322,1.975
7323,1.968
7324,1.968
7325,1.968
7326,1.968
7327,1.971
7328,1.968
7329,1.964
7330,1.96
7331,1.953
7332,1.946
7333,1.935
7334,1.924
7335,1.913
7336,1.906
7337,1.906
7338,1.906
7339,1.913
7340,1.917
7341,1.924
7342,1.928
7343,1.935
7344,1.939
7345,1.946
7346,1.942
7347,1.946
7348,1.946
7349,1.946
7350,1.942
7351,1.935
7352,1.924
7353,1.917
7354,1.91
7355,1.902
7356,1.899
7357,1.899
7358,1.895
7359,1.902
7360,1.91
7361,1.913
7362,1.917
7363,1.921
7364,1.921
7365,1.921
7366,1.921
7367,1.913
7368,1.913
7369,1.91
7370,1.91
7371,1.917
7372,1.921
7373,1.924
7374,1.928
7375,1.928
7376,1.928
7377,1.928
7378,1.924
7379,1.924
7380,1.921
7381,1.913
7382,1.917
7383,1.917
7384,1.917
7385,1.913
7386,1.913
7387,1.913
7388,1.917
7389,1.917
7390,1.913
7391,1.913
7392,1.902
7393,1.902
7394,1.902
7395,1.899
7396,1.899
7397,1.899
7398,1.895
7399,1.892
7400,1.892
7401,1.892
7402,1.892
7403,1.892
7404,1.892
7405,1.895
7406,1.902
7407,1.906
7408,1.91
7409,1.913
7410,1.913
7411,1.913
7412,1.913
7413,1.91
7414,1.906
7415,1.899
7416,1.895
7417,1.892
7418,1.892
7419,1.895
7420,1.895
7421,1.899
7422,1.899
7423,1.899
7424,1.902
7425,1.899
7426,1.899
7427,1.895
7428,1.895
7429,1.895
7430,1.899
7431,1.902
7432,1.902
7433,1.902
7434,1.906
7435,1.906
7436,1.906
7437,1.906
7438,1.902
7439,1.899
7440,1.899
7441,1.899
7442,1.902
7443,1.91
7444,1.913
7445,1.917
7446,1.921
7447,1.921
7448,1.924
7449,1.924
7450,1.924
7451,1.924
7452,1.928
7453,1.928
7454,1.931
7455,1.939
7456,1.942
7457,1.942
7458,1.942
7459,1.939
7460,1.942
7461,1.942
7462,1.946
7463,1.953
7464,1.96
7465,1.968
7466,1.975
7467,1.978
7468,1.982
7469,1.986
7470,1.989
7471,1.996
7472,2.004
7473,2.004
7474,2.011
7475,2.015
7476,2.022
7477,2.025
7478,2.025
7479,2.022
7480,2.018
7481,2.015
7482,2.015
7483,2.018
7484,2.025
7485,2.033
7486,2.036
7487,2.036
7488,2.033
7489,2.029
7490,2.025
7491,2.025
7492,2.025
7493,2.025
7494,2.029
7495,2.036
7496,2.04
7497,2.051
7498,2.054
7499,2.058
7500,2.058
7501,2.054
7502,2.051
7503,2.047
7504,2.043
7505,2.043
7506,2.043
7507,2.04
7508,2.036
7509,2.036
7510,2.036
7511,2.04
7512,2.04
7513,2.036
7514,2.036
7515,2.036
7516,2.033
7517,2.029
7518,2.025
7519,2.018
7520,2.015
7521,2.015
7522,2.015
7523,2.015
7524,2.018
7525,2.015
7526,2.015
7527,2.011
7528,2.007
7529,2.007
7530,2.007
7531,2.004
7532,2.004
7533,2.0
7534,2.0
7535,2.0
7536,1.996
7537,1.989
7538,1.986
7539,1.986
7540,1.986
7541,1.989
7542,1.989
7543,1.993
7544,1.993
7545,1.993
7546,1.993
7547,1.989
7548,1.989
7549,1.982
7550,1.978
7551,1.978
7552,1.978
7553,1.978
7554,1.978
7555,1.978
7556,1.978
7557,1.975
7558,1.975
7559,1.971
7560,1.971
7561,1.975
7562,1.975
7563,1.975
7564,1.975
7565,1.971
7566,1.971
7567,1.971
7568,1.971
7569,1.971
7570,1.971
7571,1.971
7572,1.971
7573,1.968
7574,1.968
7575,1.968
7576,1.968
7577,1.968
7578,1.968
7579,1.971
7580,1.971
7581,1.975
7582,1.975
7583,1.978
7584,1.978
7585,1.978
7586,1.978
7587,1.978
7588,1.978
7589,1.978
7590,1.982
7591,1.982
7592,1.982
7593,1.982
7594,1.982
7595,1.982
7596,1.982
7597,1.978
7598,1.982
7599,1.982
7600,1.978
7601,1.982
7602,1.986
7603,1.989
7604,1.989
7605,1.989
7606,1.986
7607,1.986
7608,1.978
7609,1.975
7610,1.975
7611,1.975
7612,1.978
7613,1.978
7614,1.982
7615,1.982
7616,1.982
7617,1.982
7618,1.982
7619,1.978
7620,1.978
7621,1.975
7622,1.975
7623,1.971
7624,1.971
7625,1.968
7626,1.968
7627,1.964
7628,1.964
7629,1.964
7630,1.964
7631,1.968
7632,1.968
7633,1.971
7634,1.968
7635,1.968
7636,1.971
7637,1.971
7638,1.971
7639,1.968
7640,1.968
7641,1.964
7642,1.964
7643,1.96
7644,1.96
7645,1.964
7646,1.964
7647,1.968
7648,1.971
7649,1.971
7650,1.968
7651,1.968
7652,1.96
7653,1.953
7654,1.949
7655,1.949
7656,1.949
7657,1.949
7658,1.953
7659,1.953
7660,1.949
7661,1.949
7662,1.946
7663,1.942
7664,1.942
7665,1.942
7666,1.946
7667,1.953
7668,1.96
7669,1.96
7670,1.964
7671,1.964
7672,1.96
7673,1.96
7674,1.96
7675,1.957
7676,1.957
7677,1.953
7678,1.953
7679,1.953
7680,1.946
7681,1.946
7682,1.942
7683,1.939
7684,1.939
7685,1.939
7686,1.939
7687,1.935
7688,1.935
7689,1.931
7690,1.928
7691,1.928
7692,1.924
7693,1.924
7694,1.928
7695,1.928
7696,1.928
7697,1.928
7698,1.928
7699,1.924
7700,1.924
7701,1.924
7702,1.924
7703,1.921
7704,1.921
7705,1.921
7706,1.924
7707,1.924
7708,1.924
7709,1.921
7710,1.921
7711,1.921
7712,1.917
7713,1.917
7714,1.921
7715,1.921
7716,1.924
7717,1.924
7718,1.928
7719,1.924
7720,1.921
7721,1.917
7722,1.91
7723,1.906
7724,1.902
7725,1.902
7726,1.902
7727,1.906
7728,1.91
7729,1.913
7730,1.913
7731,1.913
7732,1.917
7733,1.917
7734,1.917
7735,1.917
7736,1.917
7737,1.91
7738,1.906
7739,1.899
7740,1.892
7741,1.888
7742,1.884
7743,1.888
7744,1.888
7745,1.892
7746,1.892
7747,1.892
7748,1.895
7749,1.895
7750,1.892
7751,1.892
7752,1.895
7753,1.899
7754,1.899
7755,1.899
7756,1.902
7757,1.899
7758,1.899
7759,1.899
7760,1.899
7761,1.895
7762,1.895
7763,1.892
7764,1.892
7765,1.895
7766,1.899
7767,1.902
7768,1.91
7769,1.917
7770,1.921
7771,1.924
7772,1.928
7773,1.924
7774,1.921
7775,1.921
7776,1.921
7777,1.921
7778,1.917
7779,1.921
7780,1.921
7781,1.921
7782,1.921
7783,1.921
7784,1.917
7785,1.917
7786,1.917
7787,1.917
7788,1.917
7789,1.913
7790,1.91
7791,1.906
7792,1.902
7793,1.899
7794,1.899
7795,1.899
7796,1.899
7797,1.902
7798,1.906
7799,1.906
7800,1.906
7801,1.91
7802,1.906
7803,1.906
7804,1.902
7805,1.902
7806,1.899
7807,1.895
7808,1.895
7809,1.895
7810,1.895
7811,1.895
7812,1.895
7813,1.895
7814,1.892
7815,1.892
7816,1.892
7817,1.888
7818,1.888
7819,1.884
7820,1.884
7821,1.884
7822,1.888
7823,1.888
7824,1.888
7825,1.884
7826,1.881
7827,1.874
7828,1.855
7829,1.834
7830,1.801
7831,1.765
7832,1.718
7833,1.664
7834,1.606
7835,1.562
7836,1.548
7837,1.566
7838,1.62
7839,1.711
7840,1.83
7841,1.986
7842,2.17
7843,2.376
7844,2.586
7845,2.789
7846,2.959
7847,3.078
7848,3.132
7849,3.121
7850,3.063
7851,2.987
7852,2.912
7853,2.832
7854,2.767
7855,2.705
7856,2.64
7857,2.568
7858,2.492
7859,2.423
7860,2.355
7861,2.289
7862,2.228
7863,2.166
7864,2.109
7865,2.051
7866,2.0
7867,1.957
7868,1.921
7869,1.892
7870,1.863
7871,1.837
7872,1.816
7873,1.801
7874,1.787
7875,1.779
7876,1.765
7877,1.758
7878,1.754
7879,1.751
7880,1.743
7881,1.74
7882,1.732
7883,1.725
7884,1.722
7885,1.722
7886,1.718
7887,1.722
7888,1.722
7889,1.725
7890,1.729
7891,1.732
7892,1.736
7893,1.74
7894,1.74
7895,1.74
7896,1.736
7897,1.732
7898,1.729
7899,1.729
7900,1.725
7901,1.725
7902,1.729
7903,1.729
7904,1.732
7905,1.732
7906,1.732
7907,1.729
7908,1.725
7909,1.718
7910,1.718
7911,1.714
7912,1.718
7913,1.718
7914,1.718
7915,1.718
7916,1.718
7917,1.718
7918,1.714
7919,1.711
7920,1.707
7921,1.711
7922,1.711
7923,1.711
7924,1.714
7925,1.722
7926,1.729
7927,1.736
7928,1.74
7929,1.74
7930,1.74
7931,1.736
7932,1.732
7933,1.725
7934,1.722
7935,1.722
7936,1.722
7937,1.725
7938,1.725
7939,1.725
7940,1.725
7941,1.725
7942,1.725
7943,1.722
7944,1.722
7945,1.722
7946,1.722
7947,1.729
7948,1.736
7949,1.74
7950,1.747
7951,1.747
7952,1.747
7953,1.743
7954,1.743
7955,1.74
7956,1.74
7957,1.732
7958,1.736
7959,1.736
7960,1.736
7961,1.74
7962,1.74
7963,1.743
7964,1.747
7965,1.747
7966,1.747
7967,1.743
7968,1.743
7969,1.743
7970,1.747
7971,1.747
7972,1.751
7973,1.751
7974,1.754
7975,1.754
7976,1.754
7977,1.754
7978,1.754
7979,1.754
7980,1.754
7981,1.758
7982,1.758
7983,1.765
7984,1.769
7985,1.772
7986,1.776
7987,1.776
7988,1.776
7989,1.776
7990,1.776
7991,1.776
7992,1.776
7993,1.779
7994,1.783
7995,1.787
7996,1.79
7997,1.79
7998,1.798
7999,1.801
8000,1.805
8001,1.812
8002,1.819
8003,1.819
8004,1.826
8005,1.834
8006,1.841
8007,1.852
8008,1.859
8009,1.87
8010,1.877
8011,1.884
8012,1.895
8013,1.91
8014,1.924
8015,1.942
8016,1.96
8017,1.982
8018,1.996
8019,2.011
8020,2.015
8021,1.996
8022,1.928
8023,1.772
8024,1.523
8025,1.208
8026,0.8789
8027,0.6474
8028,0.5932
8029,0.698
8030,0.897
8031,1.118
8032,1.313
8033,1.454
8034,1.555
8035,1.631
8036,1.685
8037,1.736
8038,1.779
8039,1.826
8040,1.866
8041,1.899
8042,1.917
8043,1.928
8044,1.924
8045,1.921
8046,1.906
8047,1.888
8048,1.874
8049,1.863
8050,1.855
8051,1.855
8052,1.852
8053,1.852
8054,1.855
8055,1.855
8056,1.859
8057,1.859
8058,1.859
8059,1.855
8060,1.855
8061,1.852
8062,1.848
8063,1.845
8064,1.837
8065,1.826
8066,1.812
8067,1.798
8068,1.79
8069,1.783
8070,1.783
8071,1.779
8072,1.783
8073,1.783
8074,1.783
8075,1.783
8076,1.783
8077,1.783
8078,1.779
8079,1.776
8080,1.776
8081,1.776
8082,1.776
8083,1.779
8084,1.779
8085,1.776
8086,1.776
8087,1.787
8088,1.798
8089,1.805
8090,1.805
8091,1.808
8092,1.812
8093,1.816
8094,1.823
8095,1.823
8096,1.823
8097,1.826
8098,1.826
8099,1.819
8100,1.812
8101,1.805
8102,1.798
8103,1.79
8104,1.787
8105,1.783
8106,1.776
8107,1.772
8108,1.772
8109,1.769
8110,1.769
8111,1.769
8112,1.765
8113,1.765
8114,1.761
8115,1.758
8116,1.751
8117,1.747
8118,1.74
8119,1.732
8120,1.729
8121,1.725
8122,1.722
8123,1.718
8124,1.718
8125,1.718
8126,1.718
8127,1.718
8128,1.722
8129,1.729
8130,1.732
8131,1.743
8132,1.754
8133,1.761
8134,1.765
8135,1.772
8136,1.776
8137,1.779
8138,1.783
8139,1.783
8140,1.787
8141,1.79
8142,1.79
8143,1.79
8144,1.794
8145,1.794
8146,1.798
8147,1.805
8148,1.808
8149,1.816
8150,1.819
8151,1.826
8152,1.83
8153,1.83
8154,1.83
8155,1.837
8156,1.837
8157,1.841
8158,1.845
8159,1.859
8160,1.87
8161,1.881
8162,1.892
8163,1.902
8164,1.913
8165,1.917
8166,1.924
8167,1.928
8168,1.931
8169,1.939
8170,1.935
8171,1.931
8172,1.928
8173,1.924
8174,1.917
8175,1.917
8176,1.91
8177,1.91
8178,1.91
8179,1.913
8180,1.913
8181,1.917
8182,1.917
8183,1.913
8184,1.913
8185,1.91
8186,1.91
8187,1.91
8188,1.91
8189,1.913
8190,1.917
8191,1.917
8192,1.917
8193,1.913
8194,1.91
8195,1.91
8196,1.906
8197,1.906
8198,1.906
8199,1.902
8200,1.899
8201,1.899
8202,1.895
8203,1.895
8204,1.888
8205,1.888
8206,1.884
8207,1.881
8208,1.877
8209,1.874
8210,1.87
8211,1.866
8212,1.866
8213,1.863
8214,1.859
8215,1.852
8216,1.845
8217,1.841
8218,1.83
8219,1.823
8220,1.816
8221,1.812
8222,1.808
8223,1.805
8224,1.808
8225,1.808
8226,1.808
8227,1.808
8228,1.805
8229,1.805
8230,1.801
8231,1.801
8232,1.801
8233,1.808
8234,1.812
8235,1.819
8236,1.823
8237,1.83
8238,1.837
8239,1.841
8240,1.841
8241,1.841
8242,1.841
8243,1.845
8244,1.852
8245,1.852
8246,1.852
8247,1.852
8248,1.852
8249,1.852
8250,1.852
8251,1.852
8252,1.855
8253,1.859
8254,1.859
8255,1.859
8256,1.859
8257,1.852
8258,1.848
8259,1.845
8260,1.841
8261,1.841
8262,1.841
8263,1.837
8264,1.837
8265,1.834
8266,1.83
8267,1.83
8268,1.826
8269,1.823
8270,1.823
8271,1.826
8272,1.83
8273,1.83
8274,1.834
8275,1.837
8276,1.837
8277,1.834
8278,1.834
8279,1.834
8280,1.83
8281,1.834
8282,1.837
8283,1.841
8284,1.841
8285,1.841
8286,1.841
8287,1.837
8288,1.837
8289,1.834
8290,1.826
8291,1.823
8292,1.816
8293,1.816
8294,1.812
8295,1.812
8296,1.812
8297,1.808
8298,1.805
8299,1.798
8300,1.794
8301,1.79
8302,1.787
8303,1.783
8304,1.783
8305,1.783
8306,1.783
8307,1.787
8308,1.787
8309,1.787
8310,1.787
8311,1.787
8312,1.783
8313,1.783
8314,1.787
8315,1.783
8316,1.783
8317,1.783
8318,1.783
8319,1.783
8320,1.783
8321,1.787
8322,1.787
8323,1.787
8324,1.783
8325,1.783
8326,1.779
8327,1.783
8328,1.787
8329,1.787
8330,1.787
8331,1.787
8332,1.779
8333,1.772
8334,1.765
8335,1.751
8336,1.725
8337,1.693
8338,1.653
8339,1.599
8340,1.548
8341,1.501
8342,1.476
8343,1.479
8344,1.519
8345,1.595
8346,1.707
8347,1.845
8348,2.018
8349,2.206
8350,2.42
8351,2.64
8352,2.843
8353,3.013
8354,3.129
8355,3.183
8356,3.179
8357,3.125
8358,3.053
8359,2.969
8360,2.89
8361,2.814
8362,2.738
8363,2.655
8364,2.564
8365,2.474
8366,2.391
8367,2.311
8368,2.232
8369,2.152
8370,2.076
8371,2.011
8372,1.942
8373,1.888
8374,1.841
8375,1.801
8376,1.765
8377,1.736
8378,1.711
8379,1.693
8380,1.678
8381,1.671
8382,1.667
8383,1.664
8384,1.66
8385,1.657
8386,1.649
8387,1.646
8388,1.638
8389,1.631
8390,1.628
8391,1.624
8392,1.62
8393,1.613
8394,1.609
8395,1.602
8396,1.599
8397,1.602
8398,1.602
8399,1.609
8400,1.609
8401,1.613
8402,1.613
8403,1.613
8404,1.609
8405,1.606
8406,1.599
8407,1.591
8408,1.588
8409,1.588
8410,1.591
8411,1.591
8412,1.595
8413,1.595
8414,1.595
8415,1.591
8416,1.588
8417,1.588
8418,1.588
8419,1.584
8420,1.588
8421,1.584
8422,1.584
8423,1.581
8424,1.577
8425,1.577
8426,1.577
8427,1.577
8428,1.577
8429,1.581
8430,1.581
8431,1.584
8432,1.584
8433,1.581
8434,1.581
8435,1.581
8436,1.577
8437,1.577
8438,1.577
8439,1.573
8440,1.573
8441,1.566
8442,1.559
8443,1.555
8444,1.555
8445,1.552
8446,1.548
8447,1.544
8448,1.541
8449,1.537
8450,1.537
8451,1.537
8452,1.541
8453,1.537
8454,1.541
8455,1.548
8456,1.548
8457,1.548
8458,1.548
8459,1.548
8460,1.544
8461,1.544
8462,1.544
8463,1.548
8464,1.552
8465,1.555
8466,1.559
8467,1.562
8468,1.57
8469,1.577
8470,1.581
8471,1.588
8472,1.595
8473,1.599
8474,1.606
8475,1.609
8476,1.613
8477,1.617
8478,1.62
8479,1.617
8480,1.62
8481,1.62
8482,1.624
8483,1.624
8484,1.624
8485,1.628
8486,1.628
8487,1.631
8488,1.628
8489,1.628
8490,1.628
8491,1.624
8492,1.62
8493,1.62
8494,1.624
8495,1.628
8496,1.631
8497,1.638
8498,1.642
8499,1.642
8500,1.642
8501,1.646
8502,1.646
8503,1.646
8504,1.649
8505,1.649
8506,1.649
8507,1.646
8508,1.638
8509,1.631
8510,1.628
8511,1.62
8512,1.617
8513,1.613
8514,1.613
8515,1.613
8516,1.617
8517,1.62
8518,1.624
8519,1.628
8520,1.635
8521,1.642
8522,1.646
8523,1.653
8524,1.66
8525,1.667
8526,1.675
8527,1.682
8528,1.693
8529,1.704
8530,1.714
8531,1.722
8532,1.725
8533,1.729
8534,1.732
8535,1.736
8536,1.74
8537,1.743
8538,1.751
8539,1.754
8540,1.765
8541,1.769
8542,1.776
8543,1.779
8544,1.783
8545,1.783
8546,1.787
8547,1.79
8548,1.794
8549,1.798
8550,1.801
8551,1.805
8552,1.805
8553,1.801
8554,1.801
8555,1.798
8556,1.798
8557,1.798
8558,1.808
8559,1.819
8560,1.826
8561,1.834
8562,1.845
8563,1.855
8564,1.863
8565,1.866
8566,1.866
8567,1.866
8568,1.863
8569,1.859
8570,1.863
8571,1.866
8572,1.874
8573,1.881
8574,1.888
8575,1.895
8576,1.899
8577,1.899
8578,1.899
8579,1.902
8580,1.906
8581,1.91
8582,1.913
8583,1.917
8584,1.917
8585,1.917
8586,1.913
8587,1.91
8588,1.906
8589,1.902
8590,1.902
8591,1.902
8592,1.899
8593,1.902
8594,1.906
8595,1.91
8596,1.917
8597,1.928
8598,1.935
8599,1.946
8600,1.953
8601,1.957
8602,1.96
8603,1.96
8604,1.96
8605,1.964
8606,1.968
8607,1.978
8608,1.986
8609,1.993
8610,1.996
8611,2.0
8612,2.0
8613,2.0
8614,2.0
8615,2.0
8616,1.996
8617,1.996
8618,1.993
8619,1.993
8620,1.989
8621,1.989
8622,1.986
8623,1.989
8624,1.993
8625,2.004
8626,2.018
8627,2.033
8628,2.047
8629,2.065
8630,2.083
8631,2.094
8632,2.101
8633,2.105
8634,2.112
8635,2.116
8636,2.127
8637,2.134
8638,2.138
8639,2.141
8640,2.148
8641,2.156
8642,2.17
8643,2.185
8644,2.195
8645,2.195
8646,2.185
8647,2.17
8648,2.156
8649,2.138
8650,2.134
8651,2.145
8652,2.17
8653,2.21
8654,2.25
8655,2.282
8656,2.308
8657,2.318
8658,2.315
8659,2.308
8660,2.293
8661,2.271
8662,2.257
8663,2.242
8664,2.235
8665,2.221
8666,2.203
8667,2.181
8668,2.163
8669,2.156
8670,2.159
8671,2.174
8672,2.188
8673,2.213
8674,2.246
8675,2.282
8676,2.326
8677,2.365
8678,2.402
8679,2.445
8680,2.485
8681,2.532
8682,2.59
8683,2.666
8684,2.738
8685,2.803
8686,2.85
8687,2.872
8688,2.879
8689,2.89
8690,2.908
8691,2.919
8692,2.908
8693,2.865
8694,2.785
8695,2.666
8696,2.525
8697,2.38
8698,2.232
8699,2.098
8700,1.978
8701,1.874
8702,1.783
8703,1.711
8704,1.653
8705,1.613
8706,1.588
8707,1.566
8708,1.552
8709,1.548
8710,1.552
8711,1.562
8712,1.581
8713,1.602
8714,1.631
8715,1.664
8716,1.704
8717,1.754
8718,1.798
8719,1.845
8720,1.895
8721,1.939
8722,1.986
8723,2.025
8724,2.062
8725,2.094
8726,2.116
8727,2.13
8728,2.138
8729,2.134
8730,2.123
8731,2.105
8732,2.083
8733,2.054
8734,2.018
8735,1.978
8736,1.939
8737,1.895
8738,1.855
8739,1.819
8740,1.787
8741,1.761
8742,1.74
8743,1.722
8744,1.707
8745,1.696
8746,1.689
8747,1.685
8748,1.685
8749,1.693
8750,1.707
8751,1.725
8752,1.747
8753,1.765
8754,1.79
8755,1.808
8756,1.826
8757,1.841
8758,1.848
8759,1.855
8760,1.859
8761,1.866
8762,1.87
8763,1.877
8764,1.87
8765,1.866
8766,1.859
8767,1.852
8768,1.841
8769,1.826
8770,1.816
8771,1.801
8772,1.787
8773,1.779
8774,1.769
8775,1.761
8776,1.751
8777,1.747
8778,1.743
8779,1.743
8780,1.751
8781,1.754
8782,1.761
8783,1.769
8784,1.772
8785,1.783
8786,1.794
8787,1.798
8788,1.805
8789,1.816
8790,1.823
8791,1.83
8792,1.837
8793,1.841
8794,1.845
8795,1.841
8796,1.841
8797,1.837
8798,1.837
8799,1.834
8800,1.834
8801,1.834
8802,1.837
8803,1.841
8804,1.841
8805,1.841
8806,1.837
8807,1.837
8808,1.837
8809,1.837
8810,1.837
8811,1.837
8812,1.841
8813,1.845
8814,1.845
8815,1.848
8816,1.852
8817,1.859
8818,1.863
8819,1.87
8820,1.881
8821,1.888
8822,1.892
8823,1.892
8824,1.888
8825,1.881
8826,1.877
8827,1.874
8828,1.874
8829,1.877
8830,1.881
8831,1.884
8832,1.892
8833,1.892
8834,1.884
8835,1.881
8836,1.874
8837,1.866
8838,1.863
8839,1.863
8840,1.866
8841,1.87
8842,1.874
8843,1.877
8844,1.884
8845,1.884
8846,1.892
8847,1.892
8848,1.895
8849,1.895
8850,1.895
8851,1.895
8852,1.892
8853,1.888
8854,1.881
8855,1.877
8856,1.874
8857,1.866
8858,1.866
8859,1.866
8860,1.863
8861,1.859
8862,1.855
8863,1.848
8864,1.845
8865,1.837
8866,1.834
8867,1.83
8868,1.826
8869,1.826
8870,1.826
8871,1.826
8872,1.823
8873,1.819
8874,1.816
8875,1.816
8876,1.812
8877,1.812
8878,1.812
8879,1.816
8880,1.819
8881,1.826
8882,1.83
8883,1.837
8884,1.837
8885,1.834
8886,1.83
8887,1.819
8888,1.808
8889,1.794
8890,1.783
8891,1.761
8892,1.743
8893,1.714
8894,1.685
8895,1.642
8896,1.595
8897,1.548
8898,1.512
8899,1.501
8900,1.523
8901,1.584
8902,1.678
8903,1.801
8904,1.957
8905,2.127
8906,2.318
8907,2.525
8908,2.723
8909,2.893
8910,3.024
8911,3.103
8912,3.129
8913,3.1
8914,3.035
8915,2.962
8916,2.89
8917,2.825
8918,2.767
8919,2.698
8920,2.622
8921,2.539
8922,2.456
8923,2.369
8924,2.286
8925,2.206
8926,2.123
8927,2.047
8928,1.975
8929,1.906
8930,1.845
8931,1.794
8932,1.758
8933,1.729
8934,1.704
8935,1.685
8936,1.675
8937,1.66
8938,1.649
8939,1.642
8940,1.631
8941,1.624
8942,1.613
8943,1.602
8944,1.595
8945,1.588
8946,1.584
8947,1.584
8948,1.584
8949,1.584
8950,1.584
8951,1.584
8952,1.584
8953,1.584
8954,1.588
8955,1.588
8956,1.591
8957,1.591
8958,1.591
8959,1.591
8960,1.588
8961,1.591
8962,1.595
8963,1.599
8964,1.599
8965,1.599
8966,1.599
8967,1.595
8968,1.588
8969,1.584
8970,1.581
8971,1.577
8972,1.577
8973,1.581
8974,1.588
8975,1.595
8976,1.602
8977,1.606
8978,1.606
8979,1.606
8980,1.606
8981,1.602
8982,1.599
8983,1.599
8984,1.599
8985,1.599
8986,1.602
8987,1.602
8988,1.602
8989,1.606
8990,1.609
8991,1.613
8992,1.613
8993,1.613
8994,1.613
8995,1.609
8996,1.613
8997,1.617
8998,1.617
8999,1.62
9000,1.617
9001,1.617
9002,1.613
9003,1.613
9004,1.613
9005,1.617
9006,1.613
9007,1.609
9008,1.613
9009,1.613
9010,1.613
9011,1.613
9012,1.617
9013,1.617
9014,1.617
9015,1.617
9016,1.62
9017,1.62
9018,1.624
9019,1.628
9020,1.631
9021,1.628
9022,1.628
9023,1.624
9024,1.62
9025,1.613
9026,1.613
9027,1.613
9028,1.617
9029,1.62
9030,1.624
9031,1.631
9032,1.635
9033,1.638
9034,1.642
9035,1.646
9036,1.646
9037,1.649
9038,1.646
9039,1.646
9040,1.649
9041,1.649
9042,1.653
9043,1.657
9044,1.66
9045,1.66
9046,1.66
9047,1.66
9048,1.66
9049,1.664
9050,1.671
9051,1.675
9052,1.678
9053,1.682
9054,1.685
9055,1.685
9056,1.685
9057,1.685
9058,1.685
9059,1.682
9060,1.678
9061,1.675
9062,1.675
9063,1.671
9064,1.667
9065,1.667
9066,1.671
9067,1.678
9068,1.685
9069,1.693
9070,1.696
9071,1.704
9072,1.711
9073,1.714
9074,1.714
9075,1.718
9076,1.718
9077,1.725
9078,1.729
9079,1.736
9080,1.747
9081,1.754
9082,1.758
9083,1.761
9084,1.765
9085,1.769
9086,1.776
9087,1.779
9088,1.787
9089,1.794
9090,1.798
9091,1.801
9092,1.805
9093,1.805
9094,1.805
9095,1.805
9096,1.805
9097,1.808
9098,1.816
9099,1.823
9100,1.83
9101,1.841
9102,1.845
9103,1.848
9104,1.848
9105,1.848
9106,1.848
9107,1.845
9108,1.845
9109,1.845
9110,1.841
9111,1.841
9112,1.841
9113,1.841
9114,1.837
9115,1.841
9116,1.841
9117,1.845
9118,1.848
9119,1.852
9120,1.855
9121,1.859
9122,1.859
9123,1.859
9124,1.859
9125,1.859
9126,1.855
9127,1.852
9128,1.848
9129,1.848
9130,1.848
9131,1.841
9132,1.841
9133,1.837
9134,1.834
9135,1.83
9136,1.834
9137,1.834
9138,1.837
9139,1.837
9140,1.837
9141,1.834
9142,1.83
9143,1.826
9144,1.826
9145,1.819
9146,1.819
9147,1.819
9148,1.816
9149,1.816
9150,1.812
9151,1.805
9152,1.801
9153,1.794
9154,1.79
9155,1.787
9156,1.787
9157,1.783
9158,1.787
9159,1.787
9160,1.79
9161,1.79
9162,1.79
9163,1.794
9164,1.794
9165,1.794
9166,1.794
9167,1.798
9168,1.798
9169,1.798
9170,1.801
9171,1.805
9172,1.808
9173,1.808
9174,1.812
9175,1.812
9176,1.812
9177,1.808
9178,1.805
9179,1.801
9180,1.798
9181,1.798
9182,1.798
9183,1.798
9184,1.798
9185,1.801
9186,1.801
9187,1.805
9188,1.808
9189,1.808
9190,1.808
9191,1.808
9192,1.812
9193,1.816
9194,1.819
9195,1.823
9196,1.826
9197,1.826
9198,1.826
9199,1.826
9200,1.823
9201,1.823
9202,1.823
9203,1.823
9204,1.823
9205,1.826
9206,1.826
9207,1.83
9208,1.834
9209,1.834
9210,1.834
9211,1.834
9212,1.83
9213,1.834
9214,1.83
9215,1.83
9216,1.834
9217,1.83
9218,1.826
9219,1.826
9220,1.826
9221,1.83
9222,1.834
9223,1.841
9224,1.845
9225,1.845
9226,1.845
9227,1.848
9228,1.848
9229,1.845
9230,1.845
9231,1.841
9232,1.837
9233,1.837
9234,1.837
9235,1.837
9236,1.841
9237,1.841
9238,1.841
9239,1.841
9240,1.837
9241,1.837
9242,1.834
9243,1.834
9244,1.834
9245,1.837
9246,1.837
9247,1.837
9248,1.841
9249,1.837
9250,1.841
9251,1.845
9252,1.845
9253,1.848
9254,1.848
9255,1.852
9256,1.852
9257,1.855
9258,1.855
9259,1.855
9260,1.848
9261,1.845
9262,1.845
9263,1.845
9264,1.845
9265,1.845
9266,1.845
9267,1.845
9268,1.845
9269,1.845
9270,1.845
9271,1.845
9272,1.841
9273,1.845
9274,1.845
9275,1.845
9276,1.841
9277,1.837
9278,1.837
9279,1.834
9280,1.83
9281,1.83
9282,1.834
9283,1.83
9284,1.837
9285,1.841
9286,1.845
9287,1.845
9288,1.841
9289,1.841
9290,1.841
9291,1.841
9292,1.845
9293,1.848
9294,1.859
9295,1.859
9296,1.863
9297,1.866
9298,1.866
9299,1.863
9300,1.859
9301,1.855
9302,1.855
9303,1.852
9304,1.852
9305,1.852
9306,1.852
9307,1.852
9308,1.855
9309,1.859
9310,1.863
9311,1.866
9312,1.866
9313,1.866
9314,1.866
9315,1.866
9316,1.866
9317,1.866
9318,1.866
9319,1.87
9320,1.874
9321,1.877
9322,1.877
9323,1.877
9324,1.881
9325,1.877
9326,1.874
9327,1.874
9328,1.874
9329,1.87
9330,1.866
9331,1.87
9332,1.87
9333,1.874
9334,1.874
9335,1.87
9336,1.866
9337,1.866
9338,1.863
9339,1.859
9340,1.859
9341,1.863
9342,1.87
9343,1.874
9344,1.881
9345,1.881
9346,1.881
9347,1.881
9348,1.884
9349,1.884
9350,1.888
9351,1.892
9352,1.888
9353,1.884
9354,1.881
9355,1.881
9356,1.881
9357,1.881
9358,1.881
9359,1.884
9360,1.884
9361,1.884
9362,1.884
9363,1.888
9364,1.884
9365,1.884
9366,1.884
9367,1.884
9368,1.881
9369,1.881
9370,1.881
9371,1.884
9372,1.888
9373,1.895
9374,1.899
9375,1.902
9376,1.902
9377,1.902
9378,1.899
9379,1.895
9380,1.888
9381,1.888
9382,1.884
9383,1.884
9384,1.888
9385,1.892
9386,1.902
9387,1.906
9388,1.917
9389,1.921
9390,1.924
9391,1.924
9392,1.924
9393,1.921
9394,1.921
9395,1.921
9396,1.921
9397,1.921
9398,1.924
9399,1.921
9400,1.921
9401,1.917
9402,1.917
9403,1.913
9404,1.91
9405,1.906
9406,1.902
9407,1.906
9408,1.906
9409,1.91
9410,1.91
9411,1.917
9412,1.917
9413,1.921
9414,1.917
9415,1.913
9416,1.913
9417,1.91
9418,1.906
9419,1.906
9420,1.906
9421,1.902
9422,1.899
9423,1.899
9424,1.899
9425,1.902
9426,1.906
9427,1.91
9428,1.91
9429,1.906
9430,1.906
9431,1.906
9432,1.91
9433,1.906
9434,1.91
9435,1.91
9436,1.91
9437,1.913
9438,1.913
9439,1.913
9440,1.913
9441,1.913
9442,1.913
9443,1.91
9444,1.91
9445,1.906
9446,1.902
9447,1.895
9448,1.877
9449,1.852
9450,1.819
9451,1.776
9452,1.722
9453,1.667
9454,1.624
9455,1.602
9456,1.613
9457,1.664
9458,1.751
9459,1.866
9460,2.011
9461,2.185
9462,2.383
9463,2.597
9464,2.807
9465,2.991
9466,3.136
9467,3.226
9468,3.244
9469,3.204
9470,3.136
9471,3.053
9472,2.969
9473,2.901
9474,2.836
9475,2.77
9476,2.698
9477,2.619
9478,2.539
9479,2.463
9480,2.391
9481,2.326
9482,2.261
9483,2.195
9484,2.134
9485,2.076
9486,2.022
9487,1.975
9488,1.931
9489,1.895
9490,1.87
9491,1.845
9492,1.826
9493,1.812
9494,1.805
9495,1.798
9496,1.794
9497,1.79
9498,1.787
9499,1.787
9500,1.783
9501,1.787
9502,1.783
9503,1.779
9504,1.783
9505,1.779
9506,1.779
9507,1.772
9508,1.769
9509,1.765
9510,1.761
9511,1.758
9512,1.758
9513,1.751
9514,1.747
9515,1.74
9516,1.736
9517,1.729
9518,1.729
9519,1.725
9520,1.725
9521,1.725
9522,1.729
9523,1.732
9524,1.736
9525,1.736
9526,1.736
9527,1.736
9528,1.736
9529,1.736
9530,1.736
9531,1.736
9532,1.736
9533,1.736
9534,1.736
9535,1.732
9536,1.732
9537,1.732
9538,1.732
9539,1.732
9540,1.732
9541,1.736
9542,1.736
9543,1.736
9544,1.736
9545,1.736
9546,1.736
9547,1.736
9548,1.732
9549,1.729
9550,1.729
9551,1.732
9552,1.732
9553,1.729
9554,1.729
9555,1.729
9556,1.729
9557,1.732
9558,1.736
9559,1.743
9560,1.747
9561,1.751
9562,1.754
9563,1.754
9564,1.751
9565,1.747
9566,1.74
9567,1.736
9568,1.729
9569,1.729
9570,1.725
9571,1.732
9572,1.732
9573,1.736
9574,1.736
9575,1.736
9576,1.732
9577,1.736
9578,1.74
9579,1.747
9580,1.751
9581,1.754
9582,1.754
9583,1.751
9584,1.747
9585,1.747
9586,1.743
9587,1.74
9588,1.736
9589,1.74
9590,1.74
9591,1.74
9592,1.74
9593,1.74
9594,1.74
9595,1.74
9596,1.736
9597,1.736
9598,1.736
9599,1.736
9600,1.736
9601,1.736
9602,1.736
9603,1.732
9604,1.729
9605,1.729
9606,1.725
9607,1.725
9608,1.729
9609,1.729
9610,1.732
9611,1.732
9612,1.732
9613,1.732
9614,1.732
9615,1.732
9616,1.732
9617,1.732
9618,1.732
9619,1.736
9620,1.743
9621,1.747
9622,1.751
9623,1.758
9624,1.758
9625,1.758
9626,1.758
9627,1.754
9628,1.754
9629,1.758
9630,1.761
9631,1.769
9632,1.772
9633,1.776
9634,1.779
9635,1.779
9636,1.783
9637,1.783
9638,1.787
9639,1.787
9640,1.79
9641,1.79
9642,1.798
9643,1.805
9644,1.812
9645,1.816
9646,1.823
9647,1.823
9648,1.826
9649,1.826
9650,1.826
9651,1.826
9652,1.83
9653,1.83
9654,1.83
9655,1.826
9656,1.826
9657,1.826
9658,1.834
9659,1.837
9660,1.845
9661,1.848
9662,1.852
9663,1.855
9664,1.852
9665,1.855
9666,1.855
9667,1.855
9668,1.855
9669,1.852
9670,1.848
9671,1.845
9672,1.845
9673,1.841
9674,1.845
9675,1.845
9676,1.845
9677,1.845
9678,1.845
9679,1.845
9680,1.845
9681,1.841
9682,1.841
9683,1.841
9684,1.841
9685,1.841
9686,1.845
9687,1.841
9688,1.841
9689,1.841
9690,1.837
9691,1.837
9692,1.837
9693,1.837
9694,1.837
9695,1.837
9696,1.837
9697,1.837
9698,1.841
9699,1.841
9700,1.841
9701,1.845
9702,1.845
9703,1.845
9704,1.845
9705,1.845
9706,1.845
9707,1.848
9708,1.848
9709,1.852
9710,1.848
9711,1.845
9712,1.845
9713,1.845
9714,1.848
9715,1.852
9716,1.852
9717,1.855
9718,1.855
9719,1.852
9720,1.852
9721,1.852
9722,1.852
9723,1.859
9724,1.866
9725,1.866
9726,1.87
9727,1.87
9728,1.87
9729,1.87
9730,1.87
9731,1.87
9732,1.87
9733,1.87
9734,1.87
9735,1.874
9736,1.874
9737,1.874
9738,1.874
9739,1.874
9740,1.874
9741,1.874
9742,1.874
9743,1.87
9744,1.87
9745,1.87
9746,1.87
9747,1.87
9748,1.874
9749,1.87
9750,1.87
9751,1.87
9752,1.87
9753,1.87
9754,1.87
9755,1.877
9756,1.877
9757,1.877
9758,1.881
9759,1.884
9760,1.884
9761,1.888
9762,1.888
9763,1.892
9764,1.888
9765,1.888
9766,1.884
9767,1.884
9768,1.881
9769,1.881
9770,1.884
9771,1.884
9772,1.884
9773,1.884
9774,1.884
9775,1.884
9776,1.884
9777,1.881
9778,1.884
9779,1.877
9780,1.881
9781,1.881
9782,1.881
9783,1.884
9784,1.884
9785,1.884
9786,1.884
9787,1.881
9788,1.877
9789,1.874
9790,1.874
9791,1.87
9792,1.87
9793,1.874
9794,1.874
9795,1.87
9796,1.87
9797,1.866
9798,1.863
9799,1.863
9800,1.863
9801,1.863
9802,1.866
9803,1.863
9804,1.863
9805,1.863
9806,1.859
9807,1.855
9808,1.852
9809,1.852
9810,1.848
9811,1.848
9812,1.852
9813,1.852
9814,1.852
9815,1.852
9816,1.852
9817,1.848
9818,1.848
9819,1.848
9820,1.852
9821,1.852
9822,1.852
9823,1.852
9824,1.852
9825,1.848
9826,1.845
9827,1.845
9828,1.845
9829,1.845
9830,1.845
9831,1.845
9832,1.841
9833,1.841
9834,1.837
9835,1.83
9836,1.83
9837,1.83
9838,1.834
9839,1.841
9840,1.841
9841,1.841
9842,1.837
9843,1.834
9844,1.83
9845,1.83
9846,1.826
9847,1.826
9848,1.823
9849,1.819
9850,1.819
9851,1.816
9852,1.816
9853,1.812
9854,1.812
9855,1.812
9856,1.812
9857,1.816
9858,1.816
9859,1.819
9860,1.816
9861,1.816
9862,1.812
9863,1.812
9864,1.808
9865,1.805
9866,1.805
9867,1.805
9868,1.801
9869,1.801
9870,1.801
9871,1.805
9872,1.805
9873,1.808
9874,1.812
9875,1.812
9876,1.812
9877,1.812
9878,1.816
9879,1.816
9880,1.812
9881,1.808
9882,1.805
9883,1.801
9884,1.798
9885,1.798
9886,1.794
9887,1.794
9888,1.794
9889,1.794
9890,1.798
9891,1.801
9892,1.808
9893,1.812
9894,1.819
9895,1.823
9896,1.83
9897,1.834
9898,1.841
9899,1.841
9900,1.841
9901,1.837
9902,1.834
9903,1.83
9904,1.826
9905,1.826
9906,1.823
9907,1.819
9908,1.819
9909,1.819
9910,1.816
9911,1.812
9912,1.812
9913,1.808
9914,1.812
9915,1.812
9916,1.812
9917,1.812
9918,1.812
9919,1.812
9920,1.808
9921,1.805
9922,1.805
9923,1.801
9924,1.798
9925,1.798
9926,1.798
9927,1.801
9928,1.805
9929,1.805
9930,1.805
9931,1.805
9932,1.808
9933,1.808
9934,1.808
9935,1.805
9936,1.805
9937,1.801
9938,1.801
9939,1.798
9940,1.798
9941,1.798
9942,1.798
9943,1.798
9944,1.794
9945,1.794
9946,1.794
9947,1.794
9948,1.794
9949,1.794
9950,1.794
9951,1.79
9952,1.783
9953,1.776
9954,1.761
9955,1.74
9956,1.711
9957,1.671
9958,1.62
9959,1.562
9960,1.515
9961,1.49
9962,1.497
9963,1.544
9964,1.624
9965,1.74
9966,1.888
9967,2.054
9968,2.25
9969,2.463
9970,2.68
9971,2.872
9972,3.035
9973,3.15
9974,3.201
9975,3.19
9976,3.129
9977,3.053
9978,2.966
9979,2.883
9980,2.807
9981,2.727
9982,2.648
9983,2.561
9984,2.478
9985,2.398
9986,2.326
9987,2.25
9988,2.177
9989,2.109
9990,2.04
9991,1.975
9992,1.917
9993,1.866
9994,1.826
9995,1.79
9996,1.765
9997,1.743
9998,1.725
9999,1.711
10000,1.7
10001,1.696
10002,1.693
10003,1.689
10004,1.689
10005,1.685
10006,1.678
10007,1.675
10008,1.667
10009,1.66
10010,1.657
10011,1.657
10012,1.657
10013,1.657
10014,1.657
10015,1.657
10016,1.653
10017,1.653
10018,1.649
10019,1.646
10020,1.649
10021,1.649
10022,1.649
10023,1.653
10024,1.657
10025,1.657
10026,1.653
10027,1.653
10028,1.649
10029,1.649
10030,1.649
10031,1.649
10032,1.657
10033,1.653
10034,1.657
10035,1.657
10036,1.653
10037,1.653
10038,1.649
10039,1.649
10040,1.649
10041,1.653
10042,1.649
10043,1.649
10044,1.653
10045,1.653
10046,1.653
10047,1.653
10048,1.653
10049,1.653
10050,1.653
10051,1.653
10052,1.649
10053,1.649
10054,1.649
10055,1.649
10056,1.646
10057,1.649
10058,1.653
10059,1.653
10060,1.653
10061,1.653
10062,1.653
10063,1.649
10064,1.649
10065,1.653
10066,1.653
10067,1.653
10068,1.653
10069,1.657
10070,1.657
10071,1.657
10072,1.657
10073,1.653
10074,1.649
10075,1.646
10076,1.646
10077,1.646
10078,1.649
10079,1.649
10080,1.649
10081,1.657
10082,1.657
10083,1.657
10084,1.657
10085,1.653
10086,1.657
10087,1.657
10088,1.66
10089,1.657
10090,1.66
10091,1.66
10092,1.664
10093,1.667
10094,1.667
10095,1.667
10096,1.667
10097,1.664
10098,1.664
10099,1.664
10100,1.664
10101,1.667
10102,1.667
10103,1.671
10104,1.671
10105,1.671
10106,1.667
10107,1.667
10108,1.667
10109,1.671
10110,1.675
10111,1.675
10112,1.678
10113,1.682
10114,1.678
10115,1.682
10116,1.682
10117,1.685
10118,1.685
10119,1.689
10120,1.689
10121,1.693
10122,1.696
10123,1.696
10124,1.7
10125,1.704
10126,1.704
10127,1.707
10128,1.711
10129,1.714
10130,1.718
10131,1.722
10132,1.722
10133,1.725
10134,1.725
10135,1.725
10136,1.732
10137,1.736
10138,1.743
10139,1.751
10140,1.758
10141,1.761
10142,1.761
10143,1.765
10144,1.765
10145,1.765
10146,1.765
10147,1.769
10148,1.772
10149,1.772
10150,1.772
10151,1.776
10152,1.779
10153,1.779
10154,1.783
10155,1.787
10156,1.787
10157,1.79
10158,1.794
10159,1.798
10160,1.801
10161,1.805
10162,1.808
10163,1.812
10164,1.816
10165,1.816
10166,1.812
10167,1.808
10168,1.808
10169,1.805
10170,1.808
10171,1.805
10172,1.805
10173,1.805
10174,1.808
10175,1.816
10176,1.816
10177,1.819
10178,1.819
10179,1.819
10180,1.819
10181,1.816
10182,1.819
10183,1.816
10184,1.819
10185,1.819
10186,1.819
10187,1.823
10188,1.823
10189,1.819
10190,1.819
10191,1.816
10192,1.816
10193,1.816
10194,1.816
10195,1.816
10196,1.816
10197,1.816
10198,1.816
10199,1.816
10200,1.816
10201,1.816
10202,1.816
10203,1.812
10204,1.812
10205,1.812
10206,1.812
10207,1.816
10208,1.816
10209,1.819
10210,1.819
10211,1.823
10212,1.823
10213,1.823
10214,1.819
10215,1.819
10216,1.819
10217,1.819
10218,1.819
10219,1.819
10220,1.819
10221,1.819
10222,1.816
10223,1.819
10224,1.819
10225,1.819
10226,1.823
10227,1.823
10228,1.826
10229,1.826
10230,1.826
10231,1.83
10232,1.826
10233,1.826
10234,1.826
10235,1.826
10236,1.823
10237,1.823
10238,1.823
10239,1.819
10240,1.823
10241,1.823
10242,1.826
10243,1.83
10244,1.834
10245,1.837
10246,1.841
10247,1.841
10248,1.837
10249,1.837
10250,1.834
10251,1.834
10252,1.83
10253,1.83
10254,1.83
10255,1.83
10256,1.83
10257,1.83
10258,1.83
10259,1.83
10260,1.83
10261,1.826
10262,1.826
10263,1.83
10264,1.83
10265,1.834
10266,1.837
10267,1.841
10268,1.841
10269,1.845
10270,1.845
10271,1.845
10272,1.845
10273,1.841
10274,1.841
10275,1.837
10276,1.837
10277,1.837
10278,1.837
10279,1.841
10280,1.841
10281,1.837
10282,1.837
10283,1.837
10284,1.834
10285,1.834
10286,1.837
10287,1.834
10288,1.834
10289,1.834
10290,1.834
10291,1.834
10292,1.834
10293,1.834
10294,1.834
10295,1.834
10296,1.834
10297,1.834
10298,1.83
10299,1.83
10300,1.83
10301,1.83
10302,1.834
10303,1.834
10304,1.834
10305,1.834
10306,1.834
10307,1.834
10308,1.834
10309,1.834
10310,1.83
10311,1.83
10312,1.834
10313,1.834
10314,1.834
10315,1.834
10316,1.837
10317,1.837
10318,1.841
10319,1.841
10320,1.845
10321,1.841
10322,1.837
10323,1.834
10324,1.83
10325,1.826
10326,1.823
10327,1.823
10328,1.823
10329,1.823
10330,1.826
10331,1.826
10332,1.83
10333,1.83
10334,1.834
10335,1.837
10336,1.841
10337,1.845
10338,1.845
10339,1.845
10340,1.845
10341,1.841
10342,1.841
10343,1.845
10344,1.845
10345,1.841
10346,1.841
10347,1.837
10348,1.837
10349,1.834
10350,1.834
10351,1.834
10352,1.83
10353,1.834
10354,1.834
10355,1.834
10356,1.834
10357,1.834
10358,1.837
10359,1.837
10360,1.834
10361,1.834
10362,1.83
10363,1.826
10364,1.823
10365,1.823
10366,1.823
10367,1.823
10368,1.823
10369,1.826
10370,1.83
10371,1.834
10372,1.837
10373,1.841
10374,1.837
10375,1.837
10376,1.834
10377,1.834
10378,1.834
10379,1.834
10380,1.834
10381,1.837
10382,1.837
10383,1.834
10384,1.834
10385,1.834
10386,1.834
10387,1.834
10388,1.83
10389,1.83
10390,1.826
10391,1.823
10392,1.823
10393,1.826
10394,1.826
10395,1.826
10396,1.826
10397,1.826
10398,1.826
10399,1.83
10400,1.834
10401,1.834
10402,1.83
10403,1.826
10404,1.826
10405,1.826
10406,1.83
10407,1.83
10408,1.834
10409,1.837
10410,1.837
10411,1.834
10412,1.834
10413,1.83
10414,1.83
10415,1.83
10416,1.834
10417,1.834
10418,1.834
10419,1.834
10420,1.834
10421,1.83
10422,1.823
10423,1.819
10424,1.823
10425,1.819
10426,1.819
10427,1.823
10428,1.826
10429,1.83
10430,1.83
10431,1.823
10432,1.819
10433,1.812
10434,1.808
10435,1.808
10436,1.816
10437,1.819
10438,1.826
10439,1.834
10440,1.841
10441,1.845
10442,1.848
10443,1.852
10444,1.852
10445,1.855
10446,1.855
10447,1.859
10448,1.859
10449,1.859
10450,1.855
10451,1.855
10452,1.855
10453,1.855
10454,1.855
10455,1.855
10456,1.855
10457,1.852
10458,1.848
10459,1.845
10460,1.841
10461,1.841
10462,1.845
10463,1.845
10464,1.841
10465,1.841
10466,1.837
10467,1.83
10468,1.826
10469,1.823
10470,1.823
10471,1.819
10472,1.823
10473,1.826
10474,1.83
10475,1.834
10476,1.834
10477,1.837
10478,1.837
10479,1.837
10480,1.834
10481,1.83
10482,1.83
10483,1.826
10484,1.826
10485,1.826
10486,1.826
10487,1.823
10488,1.823
10489,1.819
10490,1.816
10491,1.816
10492,1.816
10493,1.823
10494,1.826
10495,1.83
10496,1.834
10497,1.83
10498,1.826
10499,1.816
10500,1.798
10501,1.772
10502,1.736
10503,1.693
10504,1.642
10505,1.595
10506,1.552
10507,1.534
10508,1.548
10509,1.606
10510,1.696
10511,1.812
10512,1.957
10513,2.119
10514,2.297
10515,2.496
10516,2.698
10517,2.883
10518,3.035
10519,3.15
10520,3.219
10521,3.23
10522,3.186
10523,3.121
10524,3.049
10525,2.973
10526,2.912
10527,2.85
10528,2.781
10529,2.698
10530,2.611
10531,2.521
10532,2.427
10533,2.333
10534,2.242
10535,2.152
10536,2.069
10537,1.993
10538,1.924
10539,1.87
10540,1.826
10541,1.79
10542,1.765
10543,1.747
10544,1.732
10545,1.725
10546,1.722
10547,1.714
10548,1.711
10549,1.707
10550,1.704
10551,1.7
10552,1.693
10553,1.693
10554,1.693
10555,1.693
10556,1.689
10557,1.685
10558,1.675
10559,1.667
10560,1.66
10561,1.657
10562,1.653
10563,1.66
10564,1.66
10565,1.664
10566,1.667
10567,1.667
10568,1.671
10569,1.671
10570,1.671
10571,1.671
10572,1.671
10573,1.667
10574,1.667
10575,1.664
10576,1.664
10577,1.667
10578,1.671
10579,1.675
10580,1.675
10581,1.678
10582,1.678
10583,1.678
10584,1.678
10585,1.671
10586,1.667
10587,1.667
10588,1.667
10589,1.667
10590,1.667
10591,1.667
10592,1.664
10593,1.664
10594,1.66
10595,1.657
10596,1.66
10597,1.664
10598,1.664
10599,1.667
10600,1.667
10601,1.667
10602,1.664
10603,1.664
10604,1.664
10605,1.664
10606,1.66
10607,1.66
10608,1.664
10609,1.667
10610,1.664
10611,1.667
10612,1.667
10613,1.667
10614,1.667
10615,1.667
10616,1.664
10617,1.664
10618,1.66
10619,1.657
10620,1.657
10621,1.657
10622,1.653
10623,1.657
10624,1.66
10625,1.66
10626,1.664
10627,1.671
10628,1.675
10629,1.678
10630,1.678
10631,1.675
10632,1.675
10633,1.671
10634,1.667
10635,1.664
10636,1.664
10637,1.664
10638,1.667
10639,1.671
10640,1.671
10641,1.671
10642,1.671
10643,1.671
10644,1.671
10645,1.671
10646,1.671
10647,1.671
10648,1.675
10649,1.678
10650,1.678
10651,1.678
10652,1.675
10653,1.675
10654,1.675
10655,1.675
10656,1.675
10657,1.678
10658,1.682
10659,1.682
10660,1.682
10661,1.685
10662,1.685
10663,1.685
10664,1.689
10665,1.693
10666,1.696
10667,1.7
10668,1.696
10669,1.7
10670,1.7
10671,1.7
10672,1.7
10673,1.7
10674,1.7
10675,1.704
10676,1.707
10677,1.711
10678,1.718
10679,1.725
10680,1.732
10681,1.74
10682,1.751
10683,1.754
10684,1.758
10685,1.761
10686,1.761
10687,1.765
10688,1.765
10689,1.769
10690,1.772
10691,1.772
10692,1.779
10693,1.787
10694,1.794
10695,1.801
10696,1.812
10697,1.819
10698,1.826
10699,1.83
10700,1.834
10701,1.837
10702,1.841
10703,1.845
10704,1.852
10705,1.859
10706,1.866
10707,1.866
10708,1.87
10709,1.866
10710,1.866
10711,1.866
10712,1.866
10713,1.87
10714,1.874
10715,1.877
10716,1.881
10717,1.881
10718,1.884
10719,1.881
10720,1.884
10721,1.884
10722,1.884
10723,1.884
10724,1.888
10725,1.884
10726,1.888
10727,1.888
10728,1.888
10729,1.888
10730,1.888
10731,1.892
10732,1.895
10733,1.895
10734,1.902
10735,1.906
10736,1.913
10737,1.913
10738,1.917
10739,1.921
10740,1.921
10741,1.921
10742,1.917
10743,1.917
10744,1.917
10745,1.917
10746,1.917
10747,1.921
10748,1.917
10749,1.917
10750,1.917
10751,1.921
10752,1.921
10753,1.921
10754,1.921
10755,1.917
10756,1.917
10757,1.913
10758,1.91
10759,1.91
10760,1.906
10761,1.906
10762,1.91
10763,1.91
10764,1.91
10765,1.91
10766,1.91
10767,1.91
10768,1.91
10769,1.91
10770,1.913
10771,1.91
10772,1.917
10773,1.917
10774,1.917
10775,1.921
10776,1.917
10777,1.917
10778,1.913
10779,1.91
10780,1.91
10781,1.906
10782,1.913
10783,1.913
10784,1.917
10785,1.921
10786,1.921
10787,1.921
10788,1.921
10789,1.917
10790,1.917
10791,1.917
10792,1.917
10793,1.921
10794,1.921
10795,1.921
10796,1.921
10797,1.921
10798,1.921
10799,1.921
10800,1.921
10801,1.924
10802,1.924
10803,1.921
10804,1.921
10805,1.921
10806,1.917
10807,1.921
10808,1.924
10809,1.924
10810,1.928
10811,1.928
10812,1.931
10813,1.931
10814,1.931
10815,1.931
10816,1.935
10817,1.931
10818,1.928
10819,1.928
10820,1.931
10821,1.931
10822,1.931
10823,1.931
10824,1.928
10825,1.924
10826,1.921
10827,1.921
10828,1.917
10829,1.917
10830,1.921
10831,1.924
10832,1.928
10833,1.931
10834,1.931
10835,1.931
10836,1.931
10837,1.928
10838,1.928
10839,1.924
10840,1.921
10841,1.921
10842,1.921
10843,1.921
10844,1.921
10845,1.917
10846,1.917
10847,1.917
10848,1.913
10849,1.913
10850,1.917
10851,1.921
10852,1.921
10853,1.921
10854,1.924
10855,1.924
10856,1.924
10857,1.924
10858,1.924
10859,1.924
10860,1.924
10861,1.921
10862,1.921
10863,1.917
10864,1.917
10865,1.917
10866,1.917
10867,1.917
10868,1.917
10869,1.913
10870,1.91
10871,1.91
10872,1.906
10873,1.902
10874,1.902
10875,1.902
10876,1.906
10877,1.91
10878,1.91
10879,1.906
10880,1.906
10881,1.902
10882,1.899
10883,1.899
10884,1.902
10885,1.906
10886,1.91
10887,1.913
10888,1.917
10889,1.917
10890,1.917
10891,1.913
10892,1.91
10893,1.91
10894,1.91
10895,1.91
10896,1.91
10897,1.91
10898,1.906
10899,1.91
10900,1.91
10901,1.91
10902,1.91
10903,1.913
10904,1.91
10905,1.913
10906,1.913
10907,1.913
10908,1.91
10909,1.91
10910,1.91
10911,1.913
10912,1.913
10913,1.917
10914,1.917
10915,1.921
10916,1.928
10917,1.928
10918,1.928
10919,1.928
10920,1.924
10921,1.917
10922,1.917
10923,1.913
10924,1.913
10925,1.91
10926,1.906
10927,1.906
10928,1.906
10929,1.906
10930,1.906
10931,1.906
10932,1.906
10933,1.906
10934,1.906
10935,1.91
10936,1.91
10937,1.91
10938,1.91
10939,1.91
10940,1.91
10941,1.91
10942,1.91
10943,1.913
10944,1.917
10945,1.921
10946,1.924
10947,1.928
10948,1.928
10949,1.924
10950,1.924
10951,1.921
10952,1.921
10953,1.921
10954,1.924
10955,1.928
10956,1.924
10957,1.924
10958,1.924
10959,1.921
10960,1.917
10961,1.913
10962,1.91
10963,1.91
10964,1.91
10965,1.91
10966,1.91
10967,1.906
10968,1.902
10969,1.906
10970,1.906
10971,1.906
10972,1.906
10973,1.902
10974,1.902
10975,1.902
10976,1.899
10977,1.899
10978,1.902
10979,1.902
10980,1.91
10981,1.913
10982,1.917
10983,1.924
10984,1.931
10985,1.939
10986,1.942
10987,1.942
10988,1.942
10989,1.942
10990,1.939
