,0
0,2.416
1,2.326
2,2.264
3,2.232
4,2.21
5,2.192
6,2.17
7,2.145
8,2.112
9,2.076
10,2.033
11,1.986
12,1.939
13,1.892
14,1.848
15,1.808
16,1.779
17,1.754
18,1.736
19,1.722
20,1.718
21,1.718
22,1.722
23,1.722
24,1.725
25,1.729
26,1.732
27,1.736
28,1.74
29,1.74
30,1.743
31,1.743
32,1.743
33,1.747
34,1.747
35,1.751
36,1.751
37,1.754
38,1.754
39,1.754
40,1.754
41,1.754
42,1.754
43,1.751
44,1.747
45,1.747
46,1.747
47,1.751
48,1.754
49,1.758
50,1.765
51,1.769
52,1.779
53,1.783
54,1.787
55,1.794
56,1.798
57,1.801
58,1.801
59,1.805
60,1.808
61,1.808
62,1.812
63,1.812
64,1.812
65,1.816
66,1.823
67,1.826
68,1.834
69,1.837
70,1.841
71,1.845
72,1.852
73,1.855
74,1.863
75,1.863
76,1.866
77,1.874
78,1.881
79,1.888
80,1.892
81,1.902
82,1.91
83,1.917
84,1.928
85,1.939
86,1.946
87,1.953
88,1.964
89,1.971
90,1.978
91,1.986
92,1.996
93,2.007
94,2.015
95,2.025
96,2.036
97,2.043
98,2.047
99,2.054
100,2.062
101,2.065
102,2.072
103,2.08
104,2.087
105,2.094
106,2.098
107,2.105
108,2.109
109,2.112
110,2.116
111,2.116
112,2.116
113,2.112
114,2.105
115,2.098
116,2.087
117,2.072
118,2.058
119,2.036
120,2.018
121,2.0
122,1.986
123,1.968
124,1.946
125,1.924
126,1.906
127,1.884
128,1.874
129,1.859
130,1.848
131,1.837
132,1.826
133,1.812
134,1.798
135,1.783
136,1.769
137,1.751
138,1.732
139,1.718
140,1.696
141,1.682
142,1.667
143,1.653
144,1.646
145,1.642
146,1.638
147,1.638
148,1.642
149,1.642
150,1.646
151,1.642
152,1.638
153,1.635
154,1.631
155,1.631
156,1.628
157,1.631
158,1.635
159,1.638
160,1.638
161,1.642
162,1.642
163,1.642
164,1.642
165,1.646
166,1.653
167,1.657
168,1.66
169,1.66
170,1.66
171,1.66
172,1.66
173,1.66
174,1.664
175,1.671
176,1.675
177,1.678
178,1.675
179,1.671
180,1.671
181,1.667
182,1.671
183,1.671
184,1.678
185,1.682
186,1.682
187,1.682
188,1.682
189,1.682
190,1.685
191,1.693
192,1.696
193,1.707
194,1.707
195,1.711
196,1.711
197,1.711
198,1.711
199,1.707
200,1.707
201,1.707
202,1.704
203,1.704
204,1.707
205,1.707
206,1.711
207,1.722
208,1.729
209,1.74
210,1.751
211,1.761
212,1.779
213,1.801
214,1.819
215,1.841
216,1.859
217,1.87
218,1.87
219,1.855
220,1.83
221,1.801
222,1.776
223,1.751
224,1.74
225,1.732
226,1.725
227,1.718
228,1.711
229,1.707
230,1.707
231,1.711
232,1.714
233,1.718
234,1.722
235,1.725
236,1.736
237,1.743
238,1.751
239,1.761
240,1.769
241,1.772
242,1.779
243,1.783
244,1.79
245,1.79
246,1.783
247,1.779
248,1.769
249,1.769
250,1.769
251,1.772
252,1.772
253,1.769
254,1.765
255,1.769
256,1.776
257,1.779
258,1.783
259,1.783
260,1.787
261,1.79
262,1.794
263,1.801
264,1.805
265,1.812
266,1.816
267,1.823
268,1.819
269,1.819
270,1.812
271,1.812
272,1.812
273,1.812
274,1.819
275,1.823
276,1.823
277,1.826
278,1.826
279,1.83
280,1.83
281,1.83
282,1.83
283,1.834
284,1.837
285,1.845
286,1.855
287,1.87
288,1.881
289,1.892
290,1.899
291,1.899
292,1.895
293,1.899
294,1.902
295,1.902
296,1.902
297,1.902
298,1.899
299,1.899
300,1.899
301,1.899
302,1.892
303,1.888
304,1.892
305,1.892
306,1.888
307,1.884
308,1.877
309,1.874
310,1.866
311,1.859
312,1.855
313,1.848
314,1.845
315,1.841
316,1.837
317,1.837
318,1.834
319,1.834
320,1.834
321,1.834
322,1.837
323,1.845
324,1.845
325,1.848
326,1.852
327,1.852
328,1.852
329,1.852
330,1.855
331,1.859
332,1.863
333,1.866
334,1.87
335,1.866
336,1.866
337,1.863
338,1.863
339,1.866
340,1.87
341,1.87
342,1.874
343,1.874
344,1.877
345,1.877
346,1.877
347,1.877
348,1.877
349,1.877
350,1.877
351,1.874
352,1.874
353,1.874
354,1.866
355,1.859
356,1.848
357,1.83
358,1.808
359,1.776
360,1.74
361,1.7
362,1.664
363,1.646
364,1.66
365,1.722
366,1.845
367,2.033
368,2.271
369,2.535
370,2.803
371,3.045
372,3.215
373,3.302
374,3.335
375,3.349
376,3.36
377,3.374
378,3.353
379,3.291
380,3.19
381,3.06
382,2.901
383,2.734
384,2.572
385,2.427
386,2.318
387,2.239
388,2.192
389,2.148
390,2.123
391,2.094
392,2.062
393,2.025
394,1.986
395,1.949
396,1.91
397,1.877
398,1.848
399,1.826
400,1.808
401,1.794
402,1.787
403,1.783
404,1.779
405,1.779
406,1.779
407,1.776
408,1.776
409,1.776
410,1.772
411,1.769
412,1.769
413,1.769
414,1.769
415,1.769
416,1.769
417,1.772
418,1.776
419,1.776
420,1.779
421,1.783
422,1.787
423,1.79
424,1.794
425,1.798
426,1.798
427,1.798
428,1.798
429,1.798
430,1.801
431,1.801
432,1.801
433,1.801
434,1.808
435,1.812
436,1.819
437,1.826
438,1.83
439,1.837
440,1.837
441,1.837
442,1.841
443,1.837
444,1.841
445,1.845
446,1.852
447,1.859
448,1.866
449,1.874
450,1.881
451,1.881
452,1.881
453,1.881
454,1.881
455,1.881
456,1.881
457,1.884
458,1.888
459,1.892
460,1.895
461,1.902
462,1.906
463,1.917
464,1.928
465,1.931
466,1.939
467,1.946
468,1.953
469,1.964
470,1.975
471,1.982
472,1.989
473,2.0
474,2.007
475,2.011
476,2.018
477,2.025
478,2.033
479,2.04
480,2.051
481,2.062
482,2.069
483,2.076
484,2.087
485,2.094
486,2.098
487,2.101
488,2.109
489,2.112
490,2.119
491,2.123
492,2.13
493,2.134
494,2.138
495,2.141
496,2.145
497,2.141
498,2.138
499,2.134
500,2.13
501,2.127
502,2.116
503,2.109
504,2.098
505,2.087
506,2.069
507,2.054
508,2.033
509,2.011
510,1.989
511,1.968
512,1.949
513,1.931
514,1.913
515,1.895
516,1.877
517,1.863
518,1.845
519,1.826
520,1.808
521,1.794
522,1.779
523,1.765
524,1.754
525,1.743
526,1.732
527,1.725
528,1.718
529,1.711
530,1.704
531,1.696
532,1.689
533,1.685
534,1.685
535,1.685
536,1.685
537,1.682
538,1.682
539,1.685
540,1.682
541,1.678
542,1.678
543,1.678
544,1.678
545,1.675
546,1.675
547,1.671
548,1.671
549,1.671
550,1.675
551,1.675
552,1.675
553,1.678
554,1.678
555,1.682
556,1.689
557,1.693
558,1.696
559,1.7
560,1.7
561,1.704
562,1.7
563,1.7
564,1.7
565,1.7
566,1.704
567,1.704
568,1.704
569,1.707
570,1.711
571,1.714
572,1.714
573,1.714
574,1.718
575,1.718
576,1.722
577,1.722
578,1.725
579,1.729
580,1.736
581,1.74
582,1.743
583,1.74
584,1.74
585,1.736
586,1.736
587,1.736
588,1.736
589,1.736
590,1.74
591,1.74
592,1.743
593,1.747
594,1.747
595,1.751
596,1.751
597,1.754
598,1.754
599,1.758
600,1.758
601,1.761
602,1.765
603,1.765
604,1.769
605,1.765
606,1.769
607,1.769
608,1.772
609,1.776
610,1.776
611,1.776
612,1.779
613,1.779
614,1.779
615,1.783
616,1.779
617,1.779
618,1.779
619,1.776
620,1.776
621,1.776
622,1.779
623,1.783
624,1.783
625,1.787
626,1.79
627,1.79
628,1.79
629,1.79
630,1.79
631,1.79
632,1.794
633,1.798
634,1.801
635,1.805
636,1.805
637,1.805
638,1.801
639,1.801
640,1.798
641,1.798
642,1.801
643,1.805
644,1.805
645,1.808
646,1.808
647,1.812
648,1.808
649,1.812
650,1.812
651,1.808
652,1.805
653,1.805
654,1.805
655,1.805
656,1.805
657,1.801
658,1.805
659,1.801
660,1.801
661,1.801
662,1.801
663,1.801
664,1.801
665,1.805
666,1.805
667,1.812
668,1.816
669,1.823
670,1.826
671,1.83
672,1.83
673,1.834
674,1.834
675,1.834
676,1.83
677,1.834
678,1.834
679,1.834
680,1.837
681,1.837
682,1.837
683,1.834
684,1.834
685,1.834
686,1.834
687,1.834
688,1.837
689,1.841
690,1.848
691,1.852
692,1.848
693,1.845
694,1.841
695,1.837
696,1.83
697,1.826
698,1.826
699,1.83
700,1.837
701,1.852
702,1.866
703,1.877
704,1.892
705,1.899
706,1.906
707,1.91
708,1.917
709,1.921
710,1.928
711,1.928
712,1.931
713,1.924
714,1.921
715,1.913
716,1.906
717,1.902
718,1.902
719,1.902
720,1.902
721,1.902
722,1.91
723,1.913
724,1.913
725,1.917
726,1.917
727,1.913
728,1.91
729,1.902
730,1.895
731,1.888
732,1.884
733,1.881
734,1.881
735,1.877
736,1.877
737,1.881
738,1.881
739,1.884
740,1.888
741,1.892
742,1.892
743,1.892
744,1.892
745,1.888
746,1.884
747,1.884
748,1.881
749,1.877
750,1.881
751,1.877
752,1.877
753,1.877
754,1.881
755,1.888
756,1.892
757,1.892
758,1.895
759,1.899
760,1.902
761,1.906
762,1.91
763,1.91
764,1.913
765,1.917
766,1.921
767,1.921
768,1.921
769,1.917
770,1.913
771,1.91
772,1.902
773,1.888
774,1.87
775,1.845
776,1.816
777,1.779
778,1.736
779,1.7
780,1.675
781,1.682
782,1.729
783,1.837
784,2.025
785,2.264
786,2.532
787,2.799
788,3.053
789,3.233
790,3.342
791,3.382
792,3.396
793,3.414
794,3.432
795,3.429
796,3.378
797,3.284
798,3.154
799,2.998
800,2.825
801,2.662
802,2.525
803,2.42
804,2.347
805,2.297
806,2.253
807,2.217
808,2.181
809,2.148
810,2.112
811,2.072
812,2.04
813,2.004
814,1.971
815,1.939
816,1.913
817,1.892
818,1.877
819,1.866
820,1.863
821,1.852
822,1.848
823,1.841
824,1.837
825,1.837
826,1.834
827,1.834
828,1.834
829,1.834
830,1.834
831,1.834
832,1.83
833,1.826
834,1.826
835,1.823
836,1.823
837,1.823
838,1.823
839,1.823
840,1.826
841,1.826
842,1.83
843,1.83
844,1.834
845,1.834
846,1.837
847,1.841
848,1.845
849,1.845
850,1.848
851,1.848
852,1.852
853,1.859
854,1.866
855,1.87
856,1.874
857,1.877
858,1.877
859,1.881
860,1.881
861,1.884
862,1.888
863,1.895
864,1.899
865,1.902
866,1.906
867,1.91
868,1.913
869,1.913
870,1.917
871,1.921
872,1.928
873,1.931
874,1.939
875,1.942
876,1.949
877,1.957
878,1.964
879,1.975
880,1.986
881,2.0
882,2.015
883,2.029
884,2.04
885,2.054
886,2.058
887,2.065
888,2.069
889,2.072
890,2.076
891,2.076
892,2.08
893,2.087
894,2.098
895,2.109
896,2.119
897,2.123
898,2.13
899,2.134
900,2.138
901,2.145
902,2.152
903,2.156
904,2.166
905,2.174
906,2.181
907,2.188
908,2.192
909,2.199
910,2.203
911,2.203
912,2.206
913,2.206
914,2.206
915,2.21
916,2.21
917,2.21
918,2.203
919,2.192
920,2.185
921,2.174
922,2.163
923,2.152
924,2.138
925,2.119
926,2.101
927,2.083
928,2.062
929,2.036
930,2.011
931,1.989
932,1.968
933,1.949
934,1.928
935,1.91
936,1.892
937,1.87
938,1.848
939,1.834
940,1.812
941,1.798
942,1.787
943,1.776
944,1.769
945,1.758
946,1.751
947,1.743
948,1.736
949,1.729
950,1.729
951,1.722
952,1.718
953,1.714
954,1.707
955,1.704
956,1.704
957,1.704
958,1.704
959,1.704
960,1.704
961,1.704
962,1.7
963,1.7
964,1.696
965,1.696
966,1.7
967,1.7
968,1.7
969,1.7
970,1.7
971,1.704
972,1.707
973,1.707
974,1.711
975,1.714
976,1.714
977,1.714
978,1.718
979,1.722
980,1.722
981,1.725
982,1.729
983,1.725
984,1.725
985,1.725
986,1.729
987,1.729
988,1.732
989,1.736
990,1.74
991,1.743
992,1.743
993,1.747
994,1.747
995,1.747
996,1.747
997,1.751
998,1.754
999,1.758
1000,1.761
1001,1.765
1002,1.765
1003,1.765
1004,1.769
1005,1.765
1006,1.769
1007,1.769
1008,1.769
1009,1.772
1010,1.776
1011,1.776
1012,1.776
1013,1.776
1014,1.776
1015,1.779
1016,1.779
1017,1.779
1018,1.783
1019,1.787
1020,1.787
1021,1.787
1022,1.79
1023,1.79
1024,1.79
1025,1.79
1026,1.794
1027,1.79
1028,1.79
1029,1.79
1030,1.794
1031,1.794
1032,1.798
1033,1.798
1034,1.798
1035,1.798
1036,1.801
1037,1.798
1038,1.801
1039,1.801
1040,1.801
1041,1.805
1042,1.805
1043,1.808
1044,1.808
1045,1.808
1046,1.812
1047,1.816
1048,1.812
1049,1.812
1050,1.808
1051,1.808
1052,1.812
1053,1.812
1054,1.816
1055,1.819
1056,1.823
1057,1.823
1058,1.826
1059,1.823
1060,1.823
1061,1.819
1062,1.819
1063,1.819
1064,1.819
1065,1.819
1066,1.823
1067,1.823
1068,1.826
1069,1.83
1070,1.83
1071,1.83
1072,1.834
1073,1.837
1074,1.841
1075,1.841
1076,1.845
1077,1.845
1078,1.845
1079,1.841
1080,1.841
1081,1.841
1082,1.837
1083,1.841
1084,1.841
1085,1.845
1086,1.845
1087,1.848
1088,1.852
1089,1.852
1090,1.855
1091,1.855
1092,1.855
1093,1.852
1094,1.852
1095,1.852
1096,1.852
1097,1.852
1098,1.852
1099,1.848
1100,1.848
1101,1.848
1102,1.845
1103,1.841
1104,1.841
1105,1.841
1106,1.845
1107,1.845
1108,1.845
1109,1.845
1110,1.841
1111,1.841
1112,1.848
1113,1.848
1114,1.852
1115,1.855
1116,1.855
1117,1.852
1118,1.852
1119,1.852
1120,1.848
1121,1.845
1122,1.841
1123,1.837
1124,1.834
1125,1.834
1126,1.837
1127,1.841
1128,1.852
1129,1.859
1130,1.87
1131,1.877
1132,1.884
1133,1.892
1134,1.902
1135,1.906
1136,1.91
1137,1.91
1138,1.91
1139,1.906
1140,1.902
1141,1.899
1142,1.895
1143,1.892
1144,1.892
1145,1.888
1146,1.888
1147,1.888
1148,1.892
1149,1.899
1150,1.902
1151,1.906
1152,1.906
1153,1.902
1154,1.895
1155,1.888
1156,1.877
1157,1.866
1158,1.859
1159,1.859
1160,1.863
1161,1.866
1162,1.87
1163,1.874
1164,1.877
1165,1.877
1166,1.874
1167,1.874
1168,1.87
1169,1.874
1170,1.874
1171,1.874
1172,1.877
1173,1.884
1174,1.888
1175,1.892
1176,1.895
1177,1.895
1178,1.895
1179,1.895
1180,1.895
1181,1.892
1182,1.888
1183,1.884
1184,1.884
1185,1.884
1186,1.884
1187,1.892
1188,1.895
1189,1.895
1190,1.899
1191,1.902
1192,1.906
1193,1.906
1194,1.906
1195,1.906
1196,1.902
1197,1.892
1198,1.877
1199,1.855
1200,1.823
1201,1.787
1202,1.747
1203,1.704
1204,1.667
1205,1.646
1206,1.664
1207,1.725
1208,1.855
1209,2.062
1210,2.322
1211,2.597
1212,2.886
1213,3.15
1214,3.346
1215,3.454
1216,3.497
1217,3.516
1218,3.534
1219,3.552
1220,3.548
1221,3.494
1222,3.393
1223,3.252
1224,3.074
1225,2.875
1226,2.687
1227,2.528
1228,2.405
1229,2.322
1230,2.264
1231,2.224
1232,2.195
1233,2.163
1234,2.127
1235,2.091
1236,2.047
1237,2.007
1238,1.968
1239,1.931
1240,1.899
1241,1.87
1242,1.855
1243,1.834
1244,1.826
1245,1.819
1246,1.816
1247,1.812
1248,1.816
1249,1.812
1250,1.812
1251,1.808
1252,1.808
1253,1.808
1254,1.805
1255,1.801
1256,1.801
1257,1.801
1258,1.801
1259,1.798
1260,1.798
1261,1.794
1262,1.794
1263,1.798
1264,1.798
1265,1.794
1266,1.794
1267,1.798
1268,1.798
1269,1.801
1270,1.805
1271,1.808
1272,1.812
1273,1.816
1274,1.823
1275,1.823
1276,1.823
1277,1.823
1278,1.826
1279,1.826
1280,1.826
1281,1.826
1282,1.83
1283,1.834
1284,1.837
1285,1.845
1286,1.841
1287,1.845
1288,1.848
1289,1.852
1290,1.855
1291,1.855
1292,1.855
1293,1.859
1294,1.863
1295,1.866
1296,1.874
1297,1.874
1298,1.877
1299,1.884
1300,1.888
1301,1.895
1302,1.902
1303,1.91
1304,1.917
1305,1.928
1306,1.935
1307,1.946
1308,1.949
1309,1.957
1310,1.96
1311,1.964
1312,1.971
1313,1.978
1314,1.986
1315,1.993
1316,2.0
1317,2.011
1318,2.022
1319,2.029
1320,2.036
1321,2.047
1322,2.058
1323,2.065
1324,2.076
1325,2.087
1326,2.098
1327,2.105
1328,2.116
1329,2.123
1330,2.127
1331,2.13
1332,2.134
1333,2.138
1334,2.145
1335,2.152
1336,2.156
1337,2.159
1338,2.163
1339,2.166
1340,2.159
1341,2.156
1342,2.156
1343,2.152
1344,2.148
1345,2.141
1346,2.134
1347,2.123
1348,2.109
1349,2.094
1350,2.08
1351,2.058
1352,2.036
1353,2.015
1354,1.993
1355,1.971
1356,1.953
1357,1.931
1358,1.913
1359,1.892
1360,1.874
1361,1.852
1362,1.834
1363,1.816
1364,1.801
1365,1.787
1366,1.772
1367,1.758
1368,1.743
1369,1.729
1370,1.718
1371,1.707
1372,1.7
1373,1.689
1374,1.678
1375,1.671
1376,1.664
1377,1.657
1378,1.653
1379,1.653
1380,1.657
1381,1.657
1382,1.664
1383,1.66
1384,1.66
1385,1.657
1386,1.657
1387,1.657
1388,1.657
1389,1.66
1390,1.66
1391,1.66
1392,1.66
1393,1.664
1394,1.664
1395,1.664
1396,1.664
1397,1.664
1398,1.664
1399,1.667
1400,1.667
1401,1.667
1402,1.667
1403,1.671
1404,1.675
1405,1.671
1406,1.675
1407,1.675
1408,1.675
1409,1.675
1410,1.678
1411,1.682
1412,1.685
1413,1.689
1414,1.689
1415,1.693
1416,1.689
1417,1.689
1418,1.689
1419,1.689
1420,1.693
1421,1.693
1422,1.693
1423,1.696
1424,1.7
1425,1.704
1426,1.704
1427,1.704
1428,1.704
1429,1.704
1430,1.704
1431,1.707
1432,1.707
1433,1.711
1434,1.714
1435,1.714
1436,1.718
1437,1.718
1438,1.718
1439,1.722
1440,1.725
1441,1.729
1442,1.732
1443,1.729
1444,1.729
1445,1.729
1446,1.729
1447,1.736
1448,1.736
1449,1.74
1450,1.74
1451,1.74
1452,1.743
1453,1.74
1454,1.74
1455,1.74
1456,1.74
1457,1.74
1458,1.74
1459,1.74
1460,1.74
1461,1.74
1462,1.74
1463,1.74
1464,1.743
1465,1.743
1466,1.747
1467,1.751
1468,1.751
1469,1.754
1470,1.754
1471,1.751
1472,1.751
1473,1.751
1474,1.751
1475,1.751
1476,1.754
1477,1.754
1478,1.754
1479,1.758
1480,1.761
1481,1.761
1482,1.761
1483,1.761
1484,1.761
1485,1.761
1486,1.761
1487,1.765
1488,1.765
1489,1.765
1490,1.769
1491,1.769
1492,1.765
1493,1.765
1494,1.769
1495,1.769
1496,1.772
1497,1.772
1498,1.772
1499,1.776
1500,1.776
1501,1.779
1502,1.776
1503,1.776
1504,1.772
1505,1.772
1506,1.769
1507,1.772
1508,1.772
1509,1.772
1510,1.776
1511,1.776
1512,1.779
1513,1.772
1514,1.772
1515,1.776
1516,1.779
1517,1.779
1518,1.783
1519,1.783
1520,1.783
1521,1.783
1522,1.787
1523,1.79
1524,1.787
1525,1.79
1526,1.79
1527,1.79
1528,1.79
1529,1.79
1530,1.783
1531,1.779
1532,1.779
1533,1.783
1534,1.79
1535,1.79
1536,1.794
1537,1.794
1538,1.798
1539,1.798
1540,1.798
1541,1.798
1542,1.798
1543,1.798
1544,1.798
1545,1.798
1546,1.801
1547,1.801
1548,1.805
1549,1.805
1550,1.805
1551,1.805
1552,1.805
1553,1.805
1554,1.801
1555,1.805
1556,1.805
1557,1.805
1558,1.801
1559,1.798
1560,1.794
1561,1.79
1562,1.787
1563,1.783
1564,1.783
1565,1.783
1566,1.787
1567,1.79
1568,1.798
1569,1.808
1570,1.819
1571,1.83
1572,1.841
1573,1.848
1574,1.852
1575,1.855
1576,1.859
1577,1.863
1578,1.859
1579,1.859
1580,1.855
1581,1.852
1582,1.845
1583,1.841
1584,1.837
1585,1.837
1586,1.837
1587,1.841
1588,1.848
1589,1.852
1590,1.859
1591,1.863
1592,1.863
1593,1.859
1594,1.852
1595,1.845
1596,1.837
1597,1.826
1598,1.819
1599,1.812
1600,1.808
1601,1.808
1602,1.808
1603,1.812
1604,1.816
1605,1.816
1606,1.816
1607,1.816
1608,1.812
1609,1.812
1610,1.812
1611,1.808
1612,1.805
1613,1.805
1614,1.805
1615,1.808
1616,1.808
1617,1.812
1618,1.816
1619,1.816
1620,1.819
1621,1.816
1622,1.812
1623,1.812
1624,1.812
1625,1.816
1626,1.816
1627,1.819
1628,1.819
1629,1.823
1630,1.823
1631,1.826
1632,1.823
1633,1.823
1634,1.819
1635,1.816
1636,1.812
1637,1.798
1638,1.787
1639,1.769
1640,1.743
1641,1.711
1642,1.675
1643,1.628
1644,1.588
1645,1.566
1646,1.581
1647,1.642
1648,1.765
1649,1.964
1650,2.213
1651,2.492
1652,2.774
1653,3.042
1654,3.248
1655,3.367
1656,3.425
1657,3.458
1658,3.483
1659,3.505
1660,3.501
1661,3.45
1662,3.353
1663,3.219
1664,3.038
1665,2.825
1666,2.622
1667,2.449
1668,2.315
1669,2.224
1670,2.163
1671,2.123
1672,2.094
1673,2.069
1674,2.043
1675,2.004
1676,1.964
1677,1.924
1678,1.881
1679,1.845
1680,1.816
1681,1.794
1682,1.772
1683,1.758
1684,1.747
1685,1.74
1686,1.732
1687,1.725
1688,1.722
1689,1.718
1690,1.718
1691,1.714
1692,1.714
1693,1.711
1694,1.711
1695,1.707
1696,1.707
1697,1.707
1698,1.707
1699,1.707
1700,1.707
1701,1.711
1702,1.711
1703,1.714
1704,1.718
1705,1.722
1706,1.722
1707,1.725
1708,1.725
1709,1.725
1710,1.725
1711,1.729
1712,1.729
1713,1.729
1714,1.729
1715,1.732
1716,1.736
1717,1.74
1718,1.743
1719,1.747
1720,1.751
1721,1.758
1722,1.761
1723,1.765
1724,1.769
1725,1.772
1726,1.772
1727,1.772
1728,1.776
1729,1.776
1730,1.779
1731,1.783
1732,1.787
1733,1.79
1734,1.794
1735,1.801
1736,1.805
1737,1.812
1738,1.819
1739,1.826
1740,1.826
1741,1.834
1742,1.837
1743,1.845
1744,1.852
1745,1.863
1746,1.87
1747,1.881
1748,1.888
1749,1.895
1750,1.902
1751,1.906
1752,1.913
1753,1.917
1754,1.924
1755,1.935
1756,1.946
1757,1.96
1758,1.971
1759,1.982
1760,1.989
1761,2.0
1762,2.007
1763,2.015
1764,2.022
1765,2.033
1766,2.043
1767,2.051
1768,2.062
1769,2.065
1770,2.072
1771,2.076
1772,2.083
1773,2.083
1774,2.087
1775,2.091
1776,2.094
1777,2.101
1778,2.109
1779,2.112
1780,2.119
1781,2.123
1782,2.127
1783,2.123
1784,2.119
1785,2.116
1786,2.112
1787,2.105
1788,2.098
1789,2.087
1790,2.072
1791,2.058
1792,2.043
1793,2.029
1794,2.007
1795,1.986
1796,1.96
1797,1.939
1798,1.921
1799,1.899
1800,1.877
1801,1.855
1802,1.834
1803,1.812
1804,1.794
1805,1.772
1806,1.754
1807,1.74
1808,1.725
1809,1.714
1810,1.707
1811,1.7
1812,1.693
1813,1.685
1814,1.682
1815,1.678
1816,1.675
1817,1.671
1818,1.667
1819,1.664
1820,1.66
1821,1.653
1822,1.649
1823,1.649
1824,1.649
1825,1.653
1826,1.657
1827,1.653
1828,1.653
1829,1.649
1830,1.649
1831,1.653
1832,1.657
1833,1.657
1834,1.66
1835,1.664
1836,1.667
1837,1.667
1838,1.667
1839,1.667
1840,1.667
1841,1.675
1842,1.678
1843,1.682
1844,1.685
1845,1.689
1846,1.693
1847,1.704
1848,1.707
1849,1.718
1850,1.722
1851,1.725
1852,1.725
1853,1.725
1854,1.722
1855,1.722
1856,1.722
1857,1.722
1858,1.725
1859,1.725
1860,1.729
1861,1.729
1862,1.729
1863,1.732
1864,1.74
1865,1.747
1866,1.751
1867,1.758
1868,1.761
1869,1.765
1870,1.761
1871,1.761
1872,1.761
1873,1.765
1874,1.772
1875,1.772
1876,1.776
1877,1.772
1878,1.776
1879,1.783
1880,1.79
1881,1.787
1882,1.79
1883,1.794
1884,1.794
1885,1.79
1886,1.787
1887,1.783
1888,1.783
1889,1.783
1890,1.783
1891,1.783
1892,1.776
1893,1.776
1894,1.779
1895,1.783
1896,1.79
1897,1.794
1898,1.801
1899,1.808
1900,1.812
1901,1.816
1902,1.816
1903,1.812
1904,1.805
1905,1.794
1906,1.779
1907,1.776
1908,1.772
1909,1.769
1910,1.769
1911,1.772
1912,1.779
1913,1.787
1914,1.794
1915,1.801
1916,1.805
1917,1.805
1918,1.805
1919,1.801
1920,1.794
1921,1.787
1922,1.779
1923,1.776
1924,1.769
1925,1.765
1926,1.765
1927,1.765
1928,1.769
1929,1.772
1930,1.776
1931,1.783
1932,1.783
1933,1.787
1934,1.79
1935,1.79
1936,1.794
1937,1.798
1938,1.801
1939,1.808
1940,1.808
1941,1.808
1942,1.808
1943,1.805
1944,1.805
1945,1.805
1946,1.805
1947,1.805
1948,1.808
1949,1.812
1950,1.812
1951,1.816
1952,1.819
1953,1.819
1954,1.823
1955,1.819
1956,1.816
1957,1.812
1958,1.812
1959,1.812
1960,1.812
1961,1.816
1962,1.819
1963,1.823
1964,1.83
1965,1.834
1966,1.841
1967,1.837
1968,1.834
1969,1.826
1970,1.823
1971,1.819
1972,1.816
1973,1.808
1974,1.808
1975,1.805
1976,1.808
1977,1.812
1978,1.805
1979,1.801
1980,1.801
1981,1.801
1982,1.805
1983,1.805
1984,1.808
1985,1.808
1986,1.808
1987,1.808
1988,1.812
1989,1.812
1990,1.812
1991,1.808
1992,1.812
1993,1.816
1994,1.816
1995,1.816
1996,1.816
1997,1.812
1998,1.808
1999,1.805
2000,1.805
2001,1.801
2002,1.798
2003,1.794
2004,1.794
2005,1.79
2006,1.79
2007,1.787
2008,1.787
2009,1.79
2010,1.79
2011,1.787
2012,1.787
2013,1.787
2014,1.787
2015,1.79
2016,1.794
2017,1.801
2018,1.808
2019,1.816
2020,1.823
2021,1.823
2022,1.819
2023,1.816
2024,1.808
2025,1.805
2026,1.798
2027,1.79
2028,1.787
2029,1.783
2030,1.787
2031,1.79
2032,1.79
2033,1.794
2034,1.794
2035,1.79
2036,1.787
2037,1.787
2038,1.783
2039,1.776
2040,1.769
2041,1.758
2042,1.743
2043,1.729
2044,1.722
2045,1.718
2046,1.718
2047,1.722
2048,1.722
2049,1.725
2050,1.725
2051,1.729
2052,1.729
2053,1.725
2054,1.722
2055,1.722
2056,1.718
2057,1.718
2058,1.711
2059,1.707
2060,1.704
2061,1.7
2062,1.7
2063,1.7
2064,1.7
2065,1.693
2066,1.689
2067,1.689
2068,1.689
2069,1.693
2070,1.696
2071,1.696
2072,1.696
2073,1.693
2074,1.696
2075,1.696
2076,1.696
2077,1.7
2078,1.7
2079,1.693
2080,1.689
2081,1.678
2082,1.66
2083,1.642
2084,1.617
2085,1.581
2086,1.537
2087,1.494
2088,1.45
2089,1.414
2090,1.411
2091,1.458
2092,1.566
2093,1.751
2094,1.993
2095,2.257
2096,2.525
2097,2.774
2098,2.977
2099,3.1
2100,3.15
2101,3.179
2102,3.208
2103,3.244
2104,3.266
2105,3.237
2106,3.157
2107,3.035
2108,2.861
2109,2.658
2110,2.459
2111,2.286
2112,2.148
2113,2.051
2114,1.982
2115,1.935
2116,1.899
2117,1.87
2118,1.837
2119,1.801
2120,1.761
2121,1.722
2122,1.678
2123,1.638
2124,1.599
2125,1.57
2126,1.544
2127,1.526
2128,1.508
2129,1.49
2130,1.476
2131,1.465
2132,1.458
2133,1.454
2134,1.454
2135,1.458
2136,1.458
2137,1.458
2138,1.458
2139,1.461
2140,1.458
2141,1.45
2142,1.443
2143,1.439
2144,1.436
2145,1.436
2146,1.439
2147,1.443
2148,1.447
2149,1.45
2150,1.454
2151,1.454
2152,1.45
2153,1.447
2154,1.443
2155,1.443
2156,1.443
2157,1.447
2158,1.447
2159,1.447
2160,1.45
2161,1.454
2162,1.458
2163,1.458
2164,1.454
2165,1.45
2166,1.45
2167,1.454
2168,1.458
2169,1.458
2170,1.458
2171,1.458
2172,1.454
2173,1.447
2174,1.439
2175,1.425
2176,1.414
2177,1.411
2178,1.411
2179,1.421
2180,1.432
2181,1.443
2182,1.458
2183,1.465
2184,1.465
2185,1.461
2186,1.461
2187,1.461
2188,1.461
2189,1.461
2190,1.461
2191,1.465
2192,1.465
2193,1.468
2194,1.468
2195,1.468
2196,1.472
2197,1.472
2198,1.479
2199,1.487
2200,1.494
2201,1.505
2202,1.515
2203,1.523
2204,1.534
2205,1.534
2206,1.534
2207,1.537
2208,1.541
2209,1.552
2210,1.562
2211,1.566
2212,1.57
2213,1.57
2214,1.57
2215,1.573
2216,1.573
2217,1.577
2218,1.581
2219,1.588
2220,1.591
2221,1.599
2222,1.606
2223,1.613
2224,1.617
2225,1.62
2226,1.62
2227,1.624
2228,1.624
2229,1.62
2230,1.609
2231,1.599
2232,1.584
2233,1.566
2234,1.548
2235,1.53
2236,1.515
2237,1.501
2238,1.483
2239,1.465
2240,1.447
2241,1.425
2242,1.407
2243,1.385
2244,1.364
2245,1.345
2246,1.324
2247,1.302
2248,1.277
2249,1.248
2250,1.219
2251,1.197
2252,1.175
2253,1.161
2254,1.15
2255,1.143
2256,1.139
2257,1.139
2258,1.139
2259,1.125
2260,1.114
2261,1.103
2262,1.096
2263,1.089
2264,1.081
2265,1.074
2266,1.067
2267,1.06
2268,1.049
2269,1.049
2270,1.049
2271,1.052
2272,1.052
2273,1.049
2274,1.049
2275,1.049
2276,1.049
2277,1.052
2278,1.056
2279,1.06
2280,1.063
2281,1.067
2282,1.067
2283,1.067
2284,1.067
2285,1.063
2286,1.06
2287,1.052
2288,1.049
2289,1.045
2290,1.045
2291,1.049
2292,1.052
2293,1.06
2294,1.067
2295,1.071
2296,1.071
2297,1.074
2298,1.074
2299,1.071
2300,1.071
2301,1.071
2302,1.071
2303,1.071
2304,1.067
2305,1.071
2306,1.071
2307,1.071
2308,1.074
2309,1.074
2310,1.074
2311,1.074
2312,1.078
2313,1.081
2314,1.085
2315,1.089
2316,1.092
2317,1.096
2318,1.1
2319,1.1
2320,1.1
2321,1.096
2322,1.092
2323,1.085
2324,1.078
2325,1.078
2326,1.078
2327,1.085
2328,1.092
2329,1.096
2330,1.1
2331,1.1
2332,1.1
2333,1.103
2334,1.11
2335,1.11
2336,1.11
2337,1.11
2338,1.11
2339,1.107
2340,1.103
2341,1.103
2342,1.103
2343,1.103
2344,1.107
2345,1.11
2346,1.114
2347,1.114
2348,1.121
2349,1.125
2350,1.128
2351,1.132
2352,1.136
2353,1.136
2354,1.136
2355,1.136
2356,1.136
2357,1.136
2358,1.136
2359,1.136
2360,1.136
2361,1.139
2362,1.143
2363,1.143
2364,1.143
2365,1.143
2366,1.143
2367,1.143
2368,1.143
2369,1.143
2370,1.139
2371,1.139
2372,1.139
2373,1.143
2374,1.147
2375,1.15
2376,1.154
2377,1.157
2378,1.161
2379,1.161
2380,1.157
2381,1.157
2382,1.161
2383,1.161
2384,1.161
2385,1.157
2386,1.154
2387,1.15
2388,1.15
2389,1.15
2390,1.15
2391,1.154
2392,1.157
2393,1.161
2394,1.165
2395,1.168
2396,1.172
2397,1.172
2398,1.175
2399,1.179
2400,1.179
2401,1.179
2402,1.179
2403,1.183
2404,1.183
2405,1.186
2406,1.186
2407,1.19
2408,1.194
2409,1.194
2410,1.194
2411,1.197
2412,1.201
2413,1.204
2414,1.208
2415,1.212
2416,1.215
2417,1.215
2418,1.215
2419,1.219
2420,1.219
2421,1.215
2422,1.212
2423,1.212
2424,1.215
2425,1.219
2426,1.222
2427,1.226
2428,1.23
2429,1.23
2430,1.23
2431,1.23
2432,1.23
2433,1.23
2434,1.237
2435,1.241
2436,1.237
2437,1.237
2438,1.233
2439,1.233
2440,1.233
2441,1.237
2442,1.241
2443,1.241
2444,1.237
2445,1.237
2446,1.241
2447,1.241
2448,1.244
2449,1.248
2450,1.248
2451,1.248
2452,1.248
2453,1.251
2454,1.251
2455,1.248
2456,1.248
2457,1.244
2458,1.244
2459,1.244
2460,1.248
2461,1.255
2462,1.266
2463,1.277
2464,1.28
2465,1.288
2466,1.295
2467,1.306
2468,1.317
2469,1.324
2470,1.331
2471,1.338
2472,1.342
2473,1.342
2474,1.345
2475,1.342
2476,1.338
2477,1.338
2478,1.338
2479,1.342
2480,1.342
2481,1.342
2482,1.345
2483,1.349
2484,1.353
2485,1.36
2486,1.364
2487,1.367
2488,1.367
2489,1.367
2490,1.364
2491,1.356
2492,1.349
2493,1.345
2494,1.342
2495,1.338
2496,1.338
2497,1.335
2498,1.335
2499,1.335
2500,1.338
2501,1.345
2502,1.349
2503,1.356
2504,1.36
2505,1.364
2506,1.367
2507,1.371
2508,1.371
2509,1.371
2510,1.371
2511,1.371
2512,1.374
2513,1.378
2514,1.382
2515,1.385
2516,1.385
2517,1.389
2518,1.389
2519,1.385
2520,1.382
2521,1.382
2522,1.382
2523,1.382
2524,1.382
2525,1.385
2526,1.385
2527,1.389
2528,1.392
2529,1.392
2530,1.392
2531,1.385
2532,1.374
2533,1.356
2534,1.331
2535,1.295
2536,1.251
2537,1.215
2538,1.194
2539,1.197
2540,1.241
2541,1.338
2542,1.512
2543,1.736
2544,1.982
2545,2.232
2546,2.459
2547,2.629
2548,2.727
2549,2.767
2550,2.781
2551,2.803
2552,2.839
2553,2.857
2554,2.843
2555,2.785
2556,2.691
2557,2.564
2558,2.412
2559,2.264
2560,2.13
2561,2.022
2562,1.935
2563,1.874
2564,1.823
2565,1.779
2566,1.743
2567,1.711
2568,1.675
2569,1.638
2570,1.602
2571,1.566
2572,1.534
2573,1.505
2574,1.479
2575,1.461
2576,1.447
2577,1.439
2578,1.432
2579,1.432
2580,1.429
2581,1.425
2582,1.425
2583,1.421
2584,1.418
2585,1.421
2586,1.421
2587,1.429
2588,1.429
2589,1.432
2590,1.436
2591,1.439
2592,1.443
2593,1.447
2594,1.447
2595,1.447
2596,1.447
2597,1.45
2598,1.45
2599,1.454
2600,1.461
2601,1.468
2602,1.472
2603,1.479
2604,1.487
2605,1.49
2606,1.494
2607,1.494
2608,1.497
2609,1.501
2610,1.501
2611,1.501
2612,1.505
2613,1.505
2614,1.512
2615,1.519
2616,1.523
2617,1.53
2618,1.537
2619,1.541
2620,1.548
2621,1.555
2622,1.562
2623,1.566
2624,1.57
2625,1.57
2626,1.577
2627,1.577
2628,1.584
2629,1.591
2630,1.599
2631,1.606
2632,1.617
2633,1.624
2634,1.631
2635,1.642
2636,1.653
2637,1.657
2638,1.664
2639,1.671
2640,1.678
2641,1.685
2642,1.696
2643,1.707
2644,1.718
2645,1.729
2646,1.74
2647,1.754
2648,1.758
2649,1.765
2650,1.772
2651,1.779
2652,1.79
2653,1.798
2654,1.808
2655,1.823
2656,1.837
2657,1.852
2658,1.866
2659,1.874
2660,1.881
2661,1.888
2662,1.895
2663,1.906
2664,1.913
2665,1.921
2666,1.928
2667,1.939
2668,1.949
2669,1.964
2670,1.968
2671,1.975
2672,1.978
2673,1.986
2674,1.993
2675,1.993
2676,1.993
2677,1.993
2678,1.993
2679,1.989
2680,1.986
2681,1.982
2682,1.975
2683,1.971
2684,1.968
2685,1.96
2686,1.949
2687,1.939
2688,1.924
2689,1.91
2690,1.888
2691,1.87
2692,1.845
2693,1.823
2694,1.798
2695,1.776
2696,1.758
2697,1.736
2698,1.718
2699,1.704
2700,1.693
2701,1.682
2702,1.671
2703,1.66
2704,1.649
2705,1.642
2706,1.631
2707,1.624
2708,1.617
2709,1.609
2710,1.606
2711,1.602
2712,1.602
2713,1.599
2714,1.595
2715,1.595
2716,1.595
2717,1.595
2718,1.599
2719,1.602
2720,1.602
2721,1.602
2722,1.606
2723,1.609
2724,1.609
2725,1.613
2726,1.617
2727,1.62
2728,1.624
2729,1.628
2730,1.631
2731,1.631
2732,1.635
2733,1.638
2734,1.642
2735,1.646
2736,1.649
2737,1.657
2738,1.667
2739,1.675
2740,1.678
2741,1.682
2742,1.685
2743,1.689
2744,1.693
2745,1.693
2746,1.696
2747,1.704
2748,1.707
2749,1.711
2750,1.714
2751,1.718
2752,1.722
2753,1.718
2754,1.718
2755,1.722
2756,1.725
2757,1.729
2758,1.732
2759,1.74
2760,1.743
2761,1.747
2762,1.751
2763,1.754
2764,1.758
2765,1.761
2766,1.769
2767,1.769
2768,1.772
2769,1.776
2770,1.779
2771,1.783
2772,1.783
2773,1.787
2774,1.79
2775,1.794
2776,1.794
2777,1.798
2778,1.798
2779,1.798
2780,1.801
2781,1.801
2782,1.801
2783,1.805
2784,1.812
2785,1.816
2786,1.823
2787,1.834
2788,1.841
2789,1.845
2790,1.848
2791,1.848
2792,1.848
2793,1.848
2794,1.852
2795,1.852
2796,1.855
2797,1.855
2798,1.859
2799,1.866
2800,1.87
2801,1.874
2802,1.877
2803,1.881
2804,1.881
2805,1.884
2806,1.884
2807,1.884
2808,1.884
2809,1.888
2810,1.888
2811,1.888
2812,1.888
2813,1.888
2814,1.892
2815,1.892
2816,1.892
2817,1.895
2818,1.899
2819,1.902
2820,1.91
2821,1.91
2822,1.91
2823,1.913
2824,1.917
2825,1.917
2826,1.921
2827,1.924
2828,1.928
2829,1.931
2830,1.939
2831,1.942
2832,1.939
2833,1.935
2834,1.935
2835,1.939
2836,1.939
2837,1.939
2838,1.942
2839,1.942
2840,1.942
2841,1.942
2842,1.946
2843,1.946
2844,1.946
2845,1.946
2846,1.949
2847,1.953
2848,1.953
2849,1.957
2850,1.957
2851,1.96
2852,1.964
2853,1.964
2854,1.964
2855,1.964
2856,1.968
2857,1.968
2858,1.968
2859,1.971
2860,1.968
2861,1.968
2862,1.968
2863,1.971
2864,1.975
2865,1.971
2866,1.971
2867,1.975
2868,1.975
2869,1.975
2870,1.975
2871,1.978
2872,1.978
2873,1.978
2874,1.978
2875,1.975
2876,1.971
2877,1.968
2878,1.968
2879,1.971
2880,1.971
2881,1.968
2882,1.971
2883,1.971
2884,1.971
2885,1.975
2886,1.975
2887,1.975
2888,1.975
2889,1.975
2890,1.975
2891,1.975
2892,1.978
2893,1.982
2894,1.989
2895,2.0
2896,2.011
2897,2.022
2898,2.029
2899,2.033
2900,2.036
2901,2.04
2902,2.04
2903,2.043
2904,2.043
2905,2.043
2906,2.04
2907,2.036
2908,2.029
2909,2.025
2910,2.022
2911,2.022
2912,2.022
2913,2.022
2914,2.025
2915,2.029
2916,2.033
2917,2.036
2918,2.04
2919,2.036
2920,2.036
2921,2.033
2922,2.025
2923,2.018
2924,2.011
2925,2.007
2926,2.004
2927,2.0
2928,2.004
2929,2.0
2930,1.996
2931,1.993
2932,1.993
2933,1.993
2934,1.996
2935,1.996
2936,2.0
2937,2.004
2938,2.011
2939,2.015
2940,2.015
2941,2.015
2942,2.015
2943,2.015
2944,2.015
2945,2.011
2946,2.011
2947,2.007
2948,2.011
2949,2.011
2950,2.018
2951,2.018
2952,2.018
2953,2.022
2954,2.022
2955,2.022
2956,2.022
2957,2.018
2958,2.018
2959,2.018
2960,2.015
2961,2.011
2962,2.004
2963,1.989
2964,1.971
2965,1.946
2966,1.913
2967,1.877
2968,1.837
2969,1.805
2970,1.772
2971,1.761
2972,1.783
2973,1.852
2974,1.996
2975,2.217
2976,2.481
2977,2.76
2978,3.027
2979,3.255
2980,3.407
2981,3.479
2982,3.501
2983,3.497
2984,3.505
2985,3.512
2986,3.49
2987,3.432
2988,3.324
2989,3.183
2990,3.02
2991,2.857
2992,2.713
2993,2.597
2994,2.503
2995,2.438
2996,2.391
2997,2.347
2998,2.311
2999,2.275
3000,2.235
3001,2.195
3002,2.156
3003,2.109
3004,2.069
3005,2.029
3006,1.996
3007,1.971
3008,1.953
3009,1.939
3010,1.928
3011,1.924
3012,1.921
3013,1.921
3014,1.921
3015,1.921
3016,1.917
3017,1.913
3018,1.913
3019,1.913
3020,1.91
3021,1.906
3022,1.906
3023,1.902
3024,1.902
3025,1.906
3026,1.906
3027,1.906
3028,1.906
3029,1.906
3030,1.906
3031,1.91
3032,1.91
3033,1.913
3034,1.913
3035,1.917
3036,1.924
3037,1.921
3038,1.924
3039,1.924
3040,1.924
3041,1.924
3042,1.924
3043,1.924
3044,1.928
3045,1.931
3046,1.935
3047,1.942
3048,1.942
3049,1.946
3050,1.949
3051,1.957
3052,1.96
3053,1.964
3054,1.964
3055,1.968
3056,1.971
3057,1.975
3058,1.982
3059,1.982
3060,1.989
3061,1.996
3062,2.004
3063,2.011
3064,2.018
3065,2.022
3066,2.025
3067,2.029
3068,2.033
3069,2.04
3070,2.047
3071,2.054
3072,2.062
3073,2.069
3074,2.076
3075,2.08
3076,2.087
3077,2.091
3078,2.098
3079,2.105
3080,2.112
3081,2.116
3082,2.123
3083,2.13
3084,2.141
3085,2.148
3086,2.159
3087,2.166
3088,2.174
3089,2.185
3090,2.192
3091,2.195
3092,2.206
3093,2.213
3094,2.221
3095,2.224
3096,2.232
3097,2.239
3098,2.246
3099,2.253
3100,2.257
3101,2.268
3102,2.268
3103,2.275
3104,2.279
3105,2.282
3106,2.286
3107,2.286
3108,2.289
3109,2.289
3110,2.286
3111,2.279
3112,2.275
3113,2.261
3114,2.253
3115,2.246
3116,2.235
3117,2.228
3118,2.217
3119,2.203
3120,2.185
3121,2.166
3122,2.145
3123,2.127
3124,2.101
3125,2.08
3126,2.058
3127,2.036
3128,2.018
3129,1.996
3130,1.978
3131,1.96
3132,1.942
3133,1.928
3134,1.913
3135,1.899
3136,1.884
3137,1.874
3138,1.863
3139,1.855
3140,1.845
3141,1.841
3142,1.834
3143,1.826
3144,1.826
3145,1.819
3146,1.816
3147,1.812
3148,1.812
3149,1.808
3150,1.812
3151,1.812
3152,1.816
3153,1.816
3154,1.816
3155,1.816
3156,1.812
3157,1.812
3158,1.816
3159,1.816
3160,1.816
3161,1.816
3162,1.816
3163,1.816
3164,1.816
3165,1.816
3166,1.819
3167,1.816
3168,1.819
3169,1.826
3170,1.83
3171,1.837
3172,1.841
3173,1.845
3174,1.845
3175,1.845
3176,1.845
3177,1.845
3178,1.841
3179,1.841
3180,1.837
3181,1.837
3182,1.841
3183,1.848
3184,1.855
3185,1.859
3186,1.866
3187,1.87
3188,1.877
3189,1.874
3190,1.877
3191,1.877
3192,1.881
3193,1.881
3194,1.884
3195,1.888
3196,1.888
3197,1.892
3198,1.895
3199,1.895
3200,1.895
3201,1.895
3202,1.895
3203,1.899
3204,1.899
3205,1.902
3206,1.902
3207,1.902
3208,1.902
3209,1.906
3210,1.906
3211,1.906
3212,1.91
3213,1.91
3214,1.913
3215,1.913
3216,1.913
3217,1.913
3218,1.917
3219,1.921
3220,1.928
3221,1.928
3222,1.928
3223,1.928
3224,1.928
3225,1.931
3226,1.931
3227,1.935
3228,1.939
3229,1.939
3230,1.935
3231,1.935
3232,1.928
3233,1.928
3234,1.931
3235,1.931
3236,1.931
3237,1.931
3238,1.931
3239,1.935
3240,1.939
3241,1.939
3242,1.942
3243,1.942
3244,1.942
3245,1.946
3246,1.949
3247,1.949
3248,1.949
3249,1.949
3250,1.949
3251,1.949
3252,1.953
3253,1.949
3254,1.946
3255,1.946
3256,1.946
3257,1.946
3258,1.946
3259,1.949
3260,1.953
3261,1.953
3262,1.957
3263,1.96
3264,1.96
3265,1.957
3266,1.96
3267,1.957
3268,1.957
3269,1.957
3270,1.957
3271,1.957
3272,1.96
3273,1.96
3274,1.96
3275,1.957
3276,1.957
3277,1.957
3278,1.96
3279,1.96
3280,1.964
3281,1.964
3282,1.964
3283,1.964
3284,1.968
3285,1.971
3286,1.968
3287,1.971
3288,1.975
3289,1.978
3290,1.982
3291,1.986
3292,1.993
3293,1.993
3294,1.996
3295,1.993
3296,1.993
3297,1.986
3298,1.982
3299,1.978
3300,1.975
3301,1.975
3302,1.975
3303,1.982
3304,1.986
3305,1.989
3306,1.996
3307,2.0
3308,2.0
3309,1.996
3310,1.996
3311,1.996
3312,1.996
3313,1.996
3314,2.0
3315,2.0
3316,1.996
3317,1.996
3318,1.996
3319,1.996
3320,1.996
3321,2.0
3322,2.004
3323,2.007
3324,2.007
3325,2.011
3326,2.015
3327,2.015
3328,2.015
3329,2.007
3330,2.0
3331,1.996
3332,1.993
3333,1.996
3334,2.004
3335,2.011
3336,2.025
3337,2.036
3338,2.043
3339,2.051
3340,2.051
3341,2.054
3342,2.054
3343,2.058
3344,2.058
3345,2.058
3346,2.058
3347,2.054
3348,2.051
3349,2.047
3350,2.051
3351,2.051
3352,2.054
3353,2.058
3354,2.062
3355,2.062
3356,2.065
3357,2.069
3358,2.072
3359,2.072
3360,2.069
3361,2.062
3362,2.058
3363,2.051
3364,2.04
3365,2.036
3366,2.033
3367,2.033
3368,2.036
3369,2.04
3370,2.04
3371,2.043
3372,2.04
3373,2.04
3374,2.036
3375,2.033
3376,2.033
3377,2.029
3378,2.029
3379,2.033
3380,2.036
3381,2.04
3382,2.043
3383,2.04
3384,2.04
3385,2.04
3386,2.04
3387,2.04
3388,2.04
3389,2.043
3390,2.043
3391,2.047
3392,2.051
3393,2.054
3394,2.058
3395,2.062
3396,2.062
3397,2.065
3398,2.065
3399,2.062
3400,2.062
3401,2.054
3402,2.043
3403,2.029
3404,2.011
3405,1.986
3406,1.953
3407,1.913
3408,1.87
3409,1.83
3410,1.805
3411,1.812
3412,1.866
3413,1.975
3414,2.156
3415,2.391
3416,2.651
3417,2.922
3418,3.186
3419,3.4
3420,3.523
3421,3.573
3422,3.584
3423,3.591
3424,3.595
3425,3.599
3426,3.588
3427,3.555
3428,3.469
3429,3.327
3430,3.143
3431,2.951
3432,2.774
3433,2.626
3434,2.514
3435,2.43
3436,2.376
3437,2.336
3438,2.3
3439,2.268
3440,2.235
3441,2.199
3442,2.159
3443,2.119
3444,2.083
3445,2.051
3446,2.025
3447,2.007
3448,1.989
3449,1.978
3450,1.971
3451,1.968
3452,1.964
3453,1.96
3454,1.96
3455,1.96
3456,1.96
3457,1.96
3458,1.96
3459,1.957
3460,1.953
3461,1.949
3462,1.949
3463,1.946
3464,1.946
3465,1.949
3466,1.953
3467,1.953
3468,1.957
3469,1.96
3470,1.96
3471,1.96
3472,1.964
3473,1.964
3474,1.964
3475,1.964
3476,1.964
3477,1.964
3478,1.964
3479,1.968
3480,1.971
3481,1.975
3482,1.975
3483,1.978
3484,1.978
3485,1.982
3486,1.986
3487,1.989
3488,1.993
3489,2.0
3490,2.007
3491,2.007
3492,2.011
3493,2.015
3494,2.015
3495,2.015
3496,2.018
3497,2.018
3498,2.018
3499,2.018
3500,2.018
3501,2.025
3502,2.025
3503,2.033
3504,2.04
3505,2.047
3506,2.058
3507,2.065
3508,2.069
3509,2.076
3510,2.08
3511,2.087
3512,2.094
3513,2.098
3514,2.105
3515,2.109
3516,2.116
3517,2.123
3518,2.13
3519,2.138
3520,2.145
3521,2.152
3522,2.163
3523,2.17
3524,2.177
3525,2.188
3526,2.195
3527,2.203
3528,2.21
3529,2.217
3530,2.224
3531,2.232
3532,2.235
3533,2.246
3534,2.25
3535,2.257
3536,2.264
3537,2.271
3538,2.282
3539,2.289
3540,2.293
3541,2.297
3542,2.3
3543,2.308
3544,2.311
3545,2.308
3546,2.308
3547,2.308
3548,2.308
3549,2.304
3550,2.308
3551,2.308
3552,2.308
3553,2.308
3554,2.3
3555,2.297
3556,2.282
3557,2.271
3558,2.257
3559,2.242
3560,2.228
3561,2.21
3562,2.192
3563,2.174
3564,2.156
3565,2.138
3566,2.112
3567,2.091
3568,2.069
3569,2.051
3570,2.033
3571,2.018
3572,2.004
3573,1.989
3574,1.975
3575,1.964
3576,1.949
3577,1.931
3578,1.921
3579,1.91
3580,1.902
3581,1.895
3582,1.888
3583,1.884
3584,1.881
3585,1.877
3586,1.874
3587,1.877
3588,1.874
3589,1.87
3590,1.866
3591,1.866
3592,1.863
3593,1.863
3594,1.863
3595,1.866
3596,1.87
3597,1.87
3598,1.874
3599,1.866
3600,1.866
3601,1.866
3602,1.866
3603,1.866
3604,1.866
3605,1.866
3606,1.874
3607,1.877
3608,1.881
3609,1.881
3610,1.884
3611,1.888
3612,1.892
3613,1.892
3614,1.888
3615,1.888
3616,1.888
3617,1.888
3618,1.892
3619,1.895
3620,1.899
3621,1.895
3622,1.895
3623,1.895
3624,1.895
3625,1.895
3626,1.892
3627,1.892
3628,1.895
3629,1.899
3630,1.902
3631,1.906
3632,1.91
3633,1.913
3634,1.913
3635,1.917
3636,1.913
3637,1.913
3638,1.913
3639,1.913
3640,1.913
3641,1.917
3642,1.917
3643,1.917
3644,1.921
3645,1.924
3646,1.924
3647,1.931
3648,1.931
3649,1.931
3650,1.935
3651,1.935
3652,1.935
3653,1.935
3654,1.939
3655,1.939
3656,1.939
3657,1.942
3658,1.942
3659,1.946
3660,1.949
3661,1.953
3662,1.957
3663,1.96
3664,1.953
3665,1.953
3666,1.953
3667,1.953
3668,1.953
3669,1.953
3670,1.957
3671,1.96
3672,1.96
3673,1.964
3674,1.968
3675,1.968
3676,1.968
3677,1.971
3678,1.971
3679,1.971
3680,1.971
3681,1.971
3682,1.971
3683,1.971
3684,1.975
3685,1.971
3686,1.968
3687,1.968
3688,1.968
3689,1.971
3690,1.975
3691,1.978
3692,1.982
3693,1.982
3694,1.982
3695,1.986
3696,1.978
3697,1.978
3698,1.975
3699,1.975
3700,1.975
3701,1.975
3702,1.975
3703,1.978
3704,1.982
3705,1.982
3706,1.986
3707,1.986
3708,1.982
3709,1.982
3710,1.982
3711,1.986
3712,1.986
3713,1.989
3714,1.989
3715,1.989
3716,1.993
3717,1.993
3718,1.989
3719,1.989
3720,1.986
3721,1.982
3722,1.982
3723,1.986
3724,1.986
3725,1.989
3726,1.993
3727,1.993
3728,1.996
3729,1.996
3730,2.0
3731,2.0
3732,2.004
3733,2.004
3734,2.007
3735,2.007
3736,2.007
3737,2.007
3738,2.011
3739,2.011
3740,2.007
3741,2.004
3742,2.004
3743,2.004
3744,2.004
3745,2.004
3746,2.004
3747,2.007
3748,2.011
3749,2.015
3750,2.015
3751,2.015
3752,2.015
3753,2.011
3754,2.011
3755,2.007
3756,2.007
3757,2.004
3758,2.004
3759,2.004
3760,2.007
3761,2.004
3762,2.004
3763,2.0
3764,2.0
3765,2.0
3766,2.0
3767,2.0
3768,2.004
3769,2.004
3770,2.004
3771,2.004
3772,2.0
3773,2.0
3774,2.0
3775,2.004
3776,2.011
3777,2.015
3778,2.025
3779,2.033
3780,2.04
3781,2.051
3782,2.051
3783,2.058
3784,2.062
3785,2.065
3786,2.069
3787,2.069
3788,2.069
3789,2.065
3790,2.062
3791,2.054
3792,2.051
3793,2.043
3794,2.04
3795,2.043
3796,2.047
3797,2.047
3798,2.051
3799,2.051
3800,2.051
3801,2.051
3802,2.051
3803,2.051
3804,2.043
3805,2.033
3806,2.025
3807,2.022
3808,2.018
3809,2.018
3810,2.022
3811,2.025
3812,2.029
3813,2.029
3814,2.033
3815,2.029
3816,2.025
3817,2.025
3818,2.029
3819,2.029
3820,2.033
3821,2.033
3822,2.033
3823,2.036
3824,2.036
3825,2.036
3826,2.036
3827,2.036
3828,2.04
3829,2.04
3830,2.043
3831,2.043
3832,2.043
3833,2.043
3834,2.043
3835,2.043
3836,2.04
3837,2.033
3838,2.033
3839,2.029
3840,2.029
3841,2.029
3842,2.029
3843,2.025
3844,2.018
3845,2.004
3846,1.986
3847,1.957
3848,1.924
3849,1.884
3850,1.845
3851,1.812
3852,1.794
3853,1.808
3854,1.87
3855,1.989
3856,2.181
3857,2.423
3858,2.684
3859,2.948
3860,3.194
3861,3.374
3862,3.476
3863,3.512
3864,3.53
3865,3.552
3866,3.57
3867,3.57
3868,3.541
3869,3.461
3870,3.346
3871,3.186
3872,3.006
3873,2.825
3874,2.669
3875,2.543
3876,2.452
3877,2.383
3878,2.333
3879,2.297
3880,2.257
3881,2.221
3882,2.177
3883,2.138
3884,2.098
3885,2.062
3886,2.025
3887,1.996
3888,1.971
3889,1.953
3890,1.942
3891,1.928
3892,1.924
3893,1.917
3894,1.917
3895,1.913
3896,1.913
3897,1.91
3898,1.906
3899,1.902
3900,1.902
3901,1.899
3902,1.895
3903,1.892
3904,1.888
3905,1.888
3906,1.888
3907,1.888
3908,1.888
3909,1.888
3910,1.888
3911,1.892
3912,1.895
3913,1.895
3914,1.892
3915,1.892
3916,1.892
3917,1.892
3918,1.892
3919,1.895
3920,1.895
3921,1.895
3922,1.895
3923,1.892
3924,1.895
3925,1.899
3926,1.902
3927,1.906
3928,1.913
3929,1.917
3930,1.924
3931,1.928
3932,1.931
3933,1.939
3934,1.939
3935,1.939
3936,1.939
3937,1.939
3938,1.942
3939,1.942
3940,1.942
3941,1.946
3942,1.949
3943,1.953
3944,1.96
3945,1.964
3946,1.971
3947,1.975
3948,1.982
3949,1.986
3950,1.986
3951,1.989
3952,1.993
3953,1.996
3954,2.004
3955,2.011
3956,2.015
3957,2.022
3958,2.025
3959,2.029
3960,2.036
3961,2.043
3962,2.051
3963,2.058
3964,2.069
3965,2.083
3966,2.087
3967,2.091
3968,2.094
3969,2.098
3970,2.105
3971,2.109
3972,2.116
3973,2.119
3974,2.127
3975,2.134
3976,2.145
3977,2.152
3978,2.156
3979,2.163
3980,2.166
3981,2.174
3982,2.181
3983,2.188
3984,2.192
3985,2.195
3986,2.199
3987,2.206
3988,2.206
3989,2.206
3990,2.21
3991,2.21
3992,2.21
3993,2.206
3994,2.206
3995,2.203
3996,2.195
3997,2.188
3998,2.177
3999,2.163
4000,2.148
4001,2.13
4002,2.116
4003,2.101
4004,2.083
4005,2.065
4006,2.047
4007,2.025
4008,2.011
4009,1.989
4010,1.971
4011,1.953
4012,1.939
4013,1.921
4014,1.906
4015,1.888
4016,1.874
4017,1.859
4018,1.841
4019,1.83
4020,1.816
4021,1.808
4022,1.798
4023,1.794
4024,1.787
4025,1.787
4026,1.783
4027,1.779
4028,1.772
4029,1.769
4030,1.765
4031,1.761
4032,1.761
4033,1.761
4034,1.765
4035,1.769
4036,1.772
4037,1.772
4038,1.776
4039,1.776
4040,1.776
4041,1.779
4042,1.776
4043,1.776
4044,1.776
4045,1.776
4046,1.779
4047,1.783
4048,1.787
4049,1.79
4050,1.79
4051,1.794
4052,1.798
4053,1.798
4054,1.798
4055,1.798
4056,1.798
4057,1.798
4058,1.798
4059,1.801
4060,1.801
4061,1.805
4062,1.812
4063,1.808
4064,1.805
4065,1.805
4066,1.805
4067,1.808
4068,1.812
4069,1.819
4070,1.826
4071,1.834
4072,1.845
4073,1.852
4074,1.855
4075,1.859
4076,1.859
4077,1.859
4078,1.855
4079,1.852
4080,1.848
4081,1.845
4082,1.841
4083,1.837
4084,1.837
4085,1.834
4086,1.83
4087,1.83
4088,1.83
4089,1.83
4090,1.83
4091,1.834
4092,1.837
4093,1.845
4094,1.848
4095,1.852
4096,1.855
4097,1.859
4098,1.866
4099,1.87
4100,1.874
4101,1.87
4102,1.87
4103,1.866
4104,1.863
4105,1.859
4106,1.863
4107,1.859
4108,1.859
4109,1.863
4110,1.863
4111,1.866
4112,1.87
4113,1.87
4114,1.87
4115,1.87
4116,1.874
4117,1.87
4118,1.87
4119,1.87
4120,1.866
4121,1.866
4122,1.866
4123,1.87
4124,1.874
4125,1.874
4126,1.877
4127,1.881
4128,1.881
4129,1.881
4130,1.881
4131,1.881
4132,1.881
4133,1.881
4134,1.881
4135,1.877
4136,1.877
4137,1.881
4138,1.881
4139,1.881
4140,1.881
4141,1.881
4142,1.877
4143,1.877
4144,1.874
4145,1.87
4146,1.866
4147,1.863
4148,1.863
4149,1.863
4150,1.863
4151,1.863
4152,1.863
4153,1.866
4154,1.866
4155,1.87
4156,1.87
4157,1.87
4158,1.866
4159,1.866
4160,1.866
4161,1.863
4162,1.859
4163,1.859
4164,1.855
4165,1.855
4166,1.855
4167,1.855
4168,1.855
4169,1.855
4170,1.855
4171,1.852
4172,1.852
4173,1.848
4174,1.845
4175,1.845
4176,1.845
4177,1.845
4178,1.845
4179,1.845
4180,1.845
4181,1.848
4182,1.845
4183,1.841
4184,1.841
4185,1.841
4186,1.837
4187,1.837
4188,1.834
4189,1.834
4190,1.834
4191,1.834
4192,1.837
4193,1.834
4194,1.83
4195,1.823
4196,1.819
4197,1.816
4198,1.816
4199,1.816
4200,1.819
4201,1.823
4202,1.823
4203,1.83
4204,1.83
4205,1.83
4206,1.834
4207,1.841
4208,1.845
4209,1.852
4210,1.859
4211,1.87
4212,1.877
4213,1.881
4214,1.884
4215,1.884
4216,1.884
4217,1.884
4218,1.884
4219,1.884
4220,1.877
4221,1.874
4222,1.87
4223,1.866
4224,1.866
4225,1.863
4226,1.863
4227,1.866
4228,1.87
4229,1.874
4230,1.877
4231,1.877
4232,1.877
4233,1.877
4234,1.87
4235,1.863
4236,1.855
4237,1.845
4238,1.837
4239,1.837
4240,1.837
4241,1.837
4242,1.837
4243,1.834
4244,1.834
4245,1.834
4246,1.837
4247,1.837
4248,1.841
4249,1.845
4250,1.852
4251,1.855
4252,1.863
4253,1.863
4254,1.863
4255,1.863
4256,1.863
4257,1.863
4258,1.855
4259,1.848
4260,1.845
4261,1.841
4262,1.841
4263,1.845
4264,1.848
4265,1.852
4266,1.852
4267,1.855
4268,1.859
4269,1.859
4270,1.859
4271,1.863
4272,1.863
4273,1.859
4274,1.855
4275,1.841
4276,1.823
4277,1.798
4278,1.769
4279,1.74
4280,1.704
4281,1.667
4282,1.635
4283,1.606
4284,1.602
4285,1.638
4286,1.732
4287,1.902
4288,2.148
4289,2.43
4290,2.713
4291,2.973
4292,3.183
4293,3.313
4294,3.364
4295,3.371
4296,3.367
4297,3.371
4298,3.374
4299,3.342
4300,3.273
4301,3.147
4302,2.987
4303,2.814
4304,2.644
4305,2.503
4306,2.391
4307,2.311
4308,2.253
4309,2.21
4310,2.166
4311,2.134
4312,2.094
4313,2.054
4314,2.015
4315,1.975
4316,1.931
4317,1.892
4318,1.855
4319,1.826
4320,1.805
4321,1.787
4322,1.772
4323,1.758
4324,1.747
4325,1.743
4326,1.74
4327,1.736
4328,1.732
4329,1.732
4330,1.729
4331,1.725
4332,1.725
4333,1.725
4334,1.722
4335,1.722
4336,1.722
4337,1.722
4338,1.722
4339,1.722
4340,1.725
4341,1.725
4342,1.725
4343,1.729
4344,1.732
4345,1.729
4346,1.732
4347,1.732
4348,1.732
4349,1.732
4350,1.736
4351,1.74
4352,1.74
4353,1.74
4354,1.743
4355,1.743
4356,1.74
4357,1.74
4358,1.74
4359,1.743
4360,1.743
4361,1.751
4362,1.754
4363,1.758
4364,1.761
4365,1.765
4366,1.765
4367,1.769
4368,1.769
4369,1.769
4370,1.772
4371,1.772
4372,1.776
4373,1.779
4374,1.787
4375,1.79
4376,1.794
4377,1.798
4378,1.805
4379,1.816
4380,1.823
4381,1.83
4382,1.841
4383,1.845
4384,1.852
4385,1.859
4386,1.866
4387,1.877
4388,1.881
4389,1.884
4390,1.888
4391,1.895
4392,1.899
4393,1.902
4394,1.91
4395,1.917
4396,1.924
4397,1.931
4398,1.942
4399,1.946
4400,1.953
4401,1.96
4402,1.968
4403,1.978
4404,1.986
4405,1.993
4406,1.996
4407,2.004
4408,2.015
4409,2.015
4410,2.018
4411,2.022
4412,2.025
4413,2.029
4414,2.033
4415,2.036
4416,2.04
4417,2.043
4418,2.047
4419,2.054
4420,2.054
4421,2.054
4422,2.058
4423,2.058
4424,2.058
4425,2.058
4426,2.054
4427,2.051
4428,2.043
4429,2.036
4430,2.025
4431,2.011
4432,1.996
4433,1.982
4434,1.968
4435,1.949
4436,1.935
4437,1.917
4438,1.902
4439,1.884
4440,1.87
4441,1.859
4442,1.837
4443,1.816
4444,1.794
4445,1.772
4446,1.754
4447,1.736
4448,1.718
4449,1.707
4450,1.696
4451,1.685
4452,1.678
4453,1.667
4454,1.657
4455,1.646
4456,1.642
4457,1.635
4458,1.631
4459,1.628
4460,1.628
4461,1.624
4462,1.624
4463,1.62
4464,1.613
4465,1.609
4466,1.609
4467,1.606
4468,1.606
4469,1.606
4470,1.609
4471,1.609
4472,1.609
4473,1.609
4474,1.606
4475,1.606
4476,1.606
4477,1.606
4478,1.609
4479,1.609
4480,1.613
4481,1.617
4482,1.62
4483,1.624
4484,1.628
4485,1.628
4486,1.628
4487,1.631
4488,1.635
4489,1.638
4490,1.638
4491,1.646
4492,1.649
4493,1.653
4494,1.657
4495,1.66
4496,1.66
4497,1.664
4498,1.664
4499,1.664
4500,1.66
4501,1.66
4502,1.66
4503,1.664
4504,1.664
4505,1.664
4506,1.667
4507,1.667
4508,1.671
4509,1.675
4510,1.675
4511,1.678
4512,1.675
4513,1.678
4514,1.678
4515,1.678
4516,1.682
4517,1.685
4518,1.689
4519,1.693
4520,1.696
4521,1.7
4522,1.704
4523,1.707
4524,1.711
4525,1.711
4526,1.711
4527,1.707
4528,1.704
4529,1.7
4530,1.7
4531,1.704
4532,1.707
4533,1.711
4534,1.711
4535,1.714
4536,1.718
4537,1.722
4538,1.725
4539,1.725
4540,1.729
4541,1.729
4542,1.729
4543,1.725
4544,1.725
4545,1.725
4546,1.732
4547,1.736
4548,1.74
4549,1.747
4550,1.747
4551,1.747
4552,1.747
4553,1.747
4554,1.743
4555,1.74
4556,1.736
4557,1.736
4558,1.736
4559,1.736
4560,1.743
4561,1.74
4562,1.74
4563,1.74
4564,1.743
4565,1.747
4566,1.747
4567,1.751
4568,1.751
4569,1.754
4570,1.758
4571,1.758
4572,1.758
4573,1.754
4574,1.754
4575,1.754
4576,1.754
4577,1.751
4578,1.754
4579,1.758
4580,1.761
4581,1.769
4582,1.765
4583,1.765
4584,1.765
4585,1.765
4586,1.769
4587,1.769
4588,1.772
4589,1.776
4590,1.779
4591,1.779
4592,1.776
4593,1.776
4594,1.776
4595,1.776
4596,1.772
4597,1.769
4598,1.772
4599,1.772
4600,1.776
4601,1.779
4602,1.776
4603,1.776
4604,1.769
4605,1.769
4606,1.776
4607,1.776
4608,1.776
4609,1.776
4610,1.776
4611,1.779
4612,1.783
4613,1.787
4614,1.794
4615,1.798
4616,1.801
4617,1.805
4618,1.808
4619,1.808
4620,1.805
4621,1.805
4622,1.805
4623,1.805
4624,1.805
4625,1.805
4626,1.798
4627,1.794
4628,1.79
4629,1.787
4630,1.787
4631,1.79
4632,1.79
4633,1.794
4634,1.794
4635,1.801
4636,1.801
4637,1.798
4638,1.801
4639,1.805
4640,1.808
4641,1.819
4642,1.834
4643,1.841
4644,1.852
4645,1.855
4646,1.855
4647,1.855
4648,1.855
4649,1.852
4650,1.852
4651,1.848
4652,1.845
4653,1.845
4654,1.845
4655,1.852
4656,1.855
4657,1.863
4658,1.87
4659,1.874
4660,1.874
4661,1.874
4662,1.874
4663,1.874
4664,1.87
4665,1.863
4666,1.855
4667,1.845
4668,1.841
4669,1.83
4670,1.826
4671,1.826
4672,1.83
4673,1.837
4674,1.841
4675,1.841
4676,1.841
4677,1.841
4678,1.845
4679,1.848
4680,1.848
4681,1.852
4682,1.855
4683,1.859
4684,1.855
4685,1.855
4686,1.852
4687,1.848
4688,1.845
4689,1.841
4690,1.845
4691,1.845
4692,1.845
4693,1.852
4694,1.855
4695,1.859
4696,1.859
4697,1.859
4698,1.859
4699,1.863
4700,1.866
4701,1.87
4702,1.87
4703,1.874
4704,1.877
4705,1.877
4706,1.87
4707,1.855
4708,1.837
4709,1.808
4710,1.776
4711,1.74
4712,1.696
4713,1.657
4714,1.635
4715,1.635
4716,1.671
4717,1.758
4718,1.906
4719,2.112
4720,2.355
4721,2.608
4722,2.865
4723,3.089
4724,3.244
4725,3.317
4726,3.349
4727,3.374
4728,3.407
4729,3.432
4730,3.425
4731,3.374
4732,3.284
4733,3.161
4734,2.995
4735,2.814
4736,2.637
4737,2.481
4738,2.362
4739,2.275
4740,2.21
4741,2.163
4742,2.127
4743,2.087
4744,2.047
4745,2.007
4746,1.964
4747,1.924
4748,1.884
4749,1.852
4750,1.823
4751,1.801
4752,1.787
4753,1.776
4754,1.772
4755,1.772
4756,1.761
4757,1.761
4758,1.758
4759,1.751
4760,1.751
4761,1.747
4762,1.743
4763,1.74
4764,1.732
4765,1.732
4766,1.729
4767,1.729
4768,1.732
4769,1.729
4770,1.729
4771,1.729
4772,1.729
4773,1.729
4774,1.732
4775,1.736
4776,1.74
4777,1.736
4778,1.74
4779,1.74
4780,1.74
4781,1.743
4782,1.747
4783,1.754
4784,1.754
4785,1.758
4786,1.758
4787,1.761
4788,1.758
4789,1.754
4790,1.751
4791,1.751
4792,1.758
4793,1.761
4794,1.769
4795,1.772
4796,1.779
4797,1.779
4798,1.783
4799,1.779
4800,1.783
4801,1.783
4802,1.783
4803,1.787
4804,1.787
4805,1.794
4806,1.798
4807,1.805
4808,1.816
4809,1.816
4810,1.819
4811,1.826
4812,1.83
4813,1.837
4814,1.845
4815,1.848
4816,1.855
4817,1.859
4818,1.863
4819,1.87
4820,1.87
4821,1.874
4822,1.877
4823,1.884
4824,1.884
4825,1.892
4826,1.902
4827,1.91
4828,1.917
4829,1.928
4830,1.939
4831,1.946
4832,1.953
4833,1.957
4834,1.964
4835,1.971
4836,1.978
4837,1.982
4838,1.989
4839,1.989
4840,1.993
4841,2.004
4842,2.004
4843,2.011
4844,2.018
4845,2.022
4846,2.029
4847,2.033
4848,2.036
4849,2.036
4850,2.036
4851,2.04
4852,2.043
4853,2.04
4854,2.036
4855,2.036
4856,2.033
4857,2.033
4858,2.033
4859,2.029
4860,2.025
4861,2.022
4862,2.018
4863,2.011
4864,1.996
4865,1.982
4866,1.968
4867,1.953
4868,1.935
4869,1.913
4870,1.895
4871,1.877
4872,1.859
4873,1.841
4874,1.823
4875,1.808
4876,1.794
4877,1.776
4878,1.761
4879,1.747
4880,1.74
4881,1.729
4882,1.718
4883,1.707
4884,1.7
4885,1.685
4886,1.678
4887,1.671
4888,1.66
4889,1.653
4890,1.649
4891,1.646
4892,1.642
4893,1.642
4894,1.642
4895,1.646
4896,1.646
4897,1.649
4898,1.649
4899,1.649
4900,1.646
4901,1.646
4902,1.642
4903,1.642
4904,1.638
4905,1.638
4906,1.638
4907,1.638
4908,1.638
4909,1.638
4910,1.642
4911,1.642
4912,1.646
4913,1.649
4914,1.649
4915,1.649
4916,1.653
4917,1.653
4918,1.653
4919,1.653
4920,1.657
4921,1.657
4922,1.664
4923,1.667
4924,1.671
4925,1.675
4926,1.675
4927,1.678
4928,1.678
4929,1.675
4930,1.675
4931,1.678
4932,1.678
4933,1.678
4934,1.682
4935,1.682
4936,1.685
4937,1.685
4938,1.693
4939,1.689
4940,1.693
4941,1.696
4942,1.696
4943,1.696
4944,1.7
4945,1.7
4946,1.704
4947,1.704
4948,1.704
4949,1.707
4950,1.704
4951,1.704
4952,1.704
4953,1.707
4954,1.711
4955,1.711
4956,1.714
4957,1.718
4958,1.722
4959,1.725
4960,1.725
4961,1.729
4962,1.732
4963,1.736
4964,1.74
4965,1.74
4966,1.736
4967,1.732
4968,1.729
4969,1.729
4970,1.729
4971,1.729
4972,1.729
4973,1.729
4974,1.729
4975,1.732
4976,1.732
4977,1.736
4978,1.74
4979,1.743
4980,1.747
4981,1.751
4982,1.754
4983,1.754
4984,1.754
4985,1.758
4986,1.758
4987,1.761
4988,1.761
4989,1.765
4990,1.761
4991,1.758
4992,1.758
4993,1.754
4994,1.754
4995,1.758
4996,1.765
4997,1.769
4998,1.772
4999,1.776
5000,1.779
5001,1.779
5002,1.779
5003,1.783
5004,1.779
5005,1.776
5006,1.772
5007,1.772
5008,1.769
5009,1.769
5010,1.769
5011,1.772
5012,1.772
5013,1.776
5014,1.779
5015,1.779
5016,1.779
5017,1.783
5018,1.787
5019,1.794
5020,1.798
5021,1.805
5022,1.805
5023,1.808
5024,1.808
5025,1.812
5026,1.808
5027,1.805
5028,1.805
5029,1.805
5030,1.805
5031,1.805
5032,1.805
5033,1.801
5034,1.798
5035,1.798
5036,1.801
5037,1.801
5038,1.801
5039,1.805
5040,1.808
5041,1.812
5042,1.812
5043,1.812
5044,1.816
5045,1.819
5046,1.819
5047,1.823
5048,1.819
5049,1.816
5050,1.816
5051,1.816
5052,1.816
5053,1.816
5054,1.823
5055,1.826
5056,1.83
5057,1.834
5058,1.826
5059,1.826
5060,1.826
5061,1.83
5062,1.837
5063,1.845
5064,1.852
5065,1.863
5066,1.874
5067,1.881
5068,1.888
5069,1.892
5070,1.895
5071,1.895
5072,1.899
5073,1.899
5074,1.899
5075,1.895
5076,1.895
5077,1.892
5078,1.888
5079,1.888
5080,1.884
5081,1.881
5082,1.884
5083,1.888
5084,1.892
5085,1.895
5086,1.899
5087,1.902
5088,1.902
5089,1.895
5090,1.888
5091,1.877
5092,1.863
5093,1.855
5094,1.852
5095,1.848
5096,1.848
5097,1.848
5098,1.852
5099,1.852
5100,1.855
5101,1.855
5102,1.859
5103,1.866
5104,1.874
5105,1.877
5106,1.881
5107,1.881
5108,1.884
5109,1.888
5110,1.888
5111,1.892
5112,1.888
5113,1.884
5114,1.881
5115,1.877
5116,1.877
5117,1.877
5118,1.881
5119,1.877
5120,1.877
5121,1.881
5122,1.884
5123,1.884
5124,1.884
5125,1.884
5126,1.881
5127,1.877
5128,1.877
5129,1.874
5130,1.874
5131,1.866
5132,1.855
5133,1.845
5134,1.823
5135,1.794
5136,1.765
5137,1.729
5138,1.693
5139,1.667
5140,1.664
5141,1.696
5142,1.787
5143,1.949
5144,2.177
5145,2.427
5146,2.684
5147,2.926
5148,3.125
5149,3.244
5150,3.299
5151,3.309
5152,3.324
5153,3.353
5154,3.378
5155,3.364
5156,3.299
5157,3.194
5158,3.056
5159,2.893
5160,2.727
5161,2.582
5162,2.463
5163,2.369
5164,2.304
5165,2.253
5166,2.206
5167,2.17
5168,2.138
5169,2.098
5170,2.054
5171,2.015
5172,1.971
5173,1.928
5174,1.892
5175,1.863
5176,1.837
5177,1.816
5178,1.805
5179,1.794
5180,1.787
5181,1.783
5182,1.779
5183,1.779
5184,1.776
5185,1.776
5186,1.779
5187,1.783
5188,1.779
5189,1.783
5190,1.787
5191,1.787
5192,1.783
5193,1.783
5194,1.779
5195,1.779
5196,1.776
5197,1.776
5198,1.776
5199,1.776
5200,1.776
5201,1.776
5202,1.776
5203,1.779
5204,1.783
5205,1.79
5206,1.794
5207,1.798
5208,1.805
5209,1.805
5210,1.808
5211,1.808
5212,1.805
5213,1.805
5214,1.801
5215,1.801
5216,1.798
5217,1.798
5218,1.801
5219,1.808
5220,1.812
5221,1.819
5222,1.826
5223,1.834
5224,1.837
5225,1.845
5226,1.848
5227,1.848
5228,1.852
5229,1.852
5230,1.855
5231,1.855
5232,1.859
5233,1.863
5234,1.863
5235,1.863
5236,1.866
5237,1.87
5238,1.881
5239,1.888
5240,1.895
5241,1.906
5242,1.91
5243,1.917
5244,1.924
5245,1.931
5246,1.939
5247,1.946
5248,1.949
5249,1.957
5250,1.96
5251,1.964
5252,1.968
5253,1.971
5254,1.978
5255,1.982
5256,1.989
5257,1.996
5258,2.004
5259,2.015
5260,2.022
5261,2.029
5262,2.04
5263,2.051
5264,2.058
5265,2.065
5266,2.076
5267,2.08
5268,2.083
5269,2.087
5270,2.091
5271,2.091
5272,2.094
5273,2.098
5274,2.098
5275,2.101
5276,2.101
5277,2.105
5278,2.105
5279,2.101
5280,2.098
5281,2.094
5282,2.087
5283,2.08
5284,2.076
5285,2.065
5286,2.058
5287,2.051
5288,2.043
5289,2.033
5290,2.018
5291,2.0
5292,1.986
5293,1.964
5294,1.946
5295,1.928
5296,1.902
5297,1.881
5298,1.863
5299,1.841
5300,1.823
5301,1.808
5302,1.798
5303,1.794
5304,1.787
5305,1.776
5306,1.772
5307,1.758
5308,1.747
5309,1.736
5310,1.725
5311,1.714
5312,1.707
5313,1.696
5314,1.689
5315,1.682
5316,1.678
5317,1.675
5318,1.675
5319,1.671
5320,1.664
5321,1.66
5322,1.657
5323,1.657
5324,1.657
5325,1.657
5326,1.657
5327,1.66
5328,1.664
5329,1.66
5330,1.664
5331,1.664
5332,1.664
5333,1.671
5334,1.675
5335,1.678
5336,1.682
5337,1.682
5338,1.682
5339,1.682
5340,1.682
5341,1.682
5342,1.682
5343,1.682
5344,1.685
5345,1.685
5346,1.689
5347,1.689
5348,1.693
5349,1.696
5350,1.696
5351,1.696
5352,1.696
5353,1.696
5354,1.696
5355,1.7
5356,1.704
5357,1.711
5358,1.714
5359,1.722
5360,1.725
5361,1.729
5362,1.732
5363,1.732
5364,1.732
5365,1.732
5366,1.732
5367,1.729
5368,1.729
5369,1.725
5370,1.725
5371,1.729
5372,1.732
5373,1.736
5374,1.736
5375,1.74
5376,1.74
5377,1.74
5378,1.74
5379,1.743
5380,1.747
5381,1.754
5382,1.758
5383,1.758
5384,1.761
5385,1.765
5386,1.769
5387,1.772
5388,1.769
5389,1.765
5390,1.765
5391,1.765
5392,1.765
5393,1.765
5394,1.765
5395,1.765
5396,1.765
5397,1.765
5398,1.765
5399,1.769
5400,1.772
5401,1.776
5402,1.779
5403,1.779
5404,1.779
5405,1.779
5406,1.783
5407,1.783
5408,1.787
5409,1.787
5410,1.79
5411,1.794
5412,1.794
5413,1.794
5414,1.794
5415,1.79
5416,1.79
5417,1.79
5418,1.79
5419,1.79
5420,1.79
5421,1.79
5422,1.79
5423,1.794
5424,1.794
5425,1.798
5426,1.794
5427,1.794
5428,1.794
5429,1.794
5430,1.798
5431,1.798
5432,1.801
5433,1.801
5434,1.805
5435,1.808
5436,1.812
5437,1.808
5438,1.808
5439,1.805
5440,1.805
5441,1.801
5442,1.801
5443,1.801
5444,1.805
5445,1.805
5446,1.812
5447,1.812
5448,1.808
5449,1.805
5450,1.801
5451,1.801
5452,1.801
5453,1.801
5454,1.801
5455,1.798
5456,1.798
5457,1.798
5458,1.794
5459,1.794
5460,1.794
5461,1.794
5462,1.79
5463,1.787
5464,1.783
5465,1.787
5466,1.794
5467,1.801
5468,1.812
5469,1.816
5470,1.823
5471,1.83
5472,1.841
5473,1.845
5474,1.852
5475,1.852
5476,1.852
5477,1.855
5478,1.855
5479,1.859
5480,1.852
5481,1.848
5482,1.841
5483,1.834
5484,1.83
5485,1.83
5486,1.834
5487,1.834
5488,1.837
5489,1.841
5490,1.852
5491,1.852
5492,1.852
5493,1.852
5494,1.848
5495,1.841
5496,1.83
5497,1.823
5498,1.816
5499,1.812
5500,1.812
5501,1.812
5502,1.812
5503,1.812
5504,1.812
5505,1.816
5506,1.819
5507,1.823
5508,1.823
5509,1.823
5510,1.819
5511,1.819
5512,1.816
5513,1.808
5514,1.805
5515,1.805
5516,1.805
5517,1.805
5518,1.805
5519,1.805
5520,1.808
5521,1.808
5522,1.816
5523,1.816
5524,1.823
5525,1.823
5526,1.823
5527,1.823
5528,1.823
5529,1.823
5530,1.819
5531,1.819
5532,1.819
5533,1.819
5534,1.812
5535,1.805
5536,1.794
5537,1.783
5538,1.765
5539,1.743
5540,1.718
5541,1.685
5542,1.649
5543,1.617
5544,1.591
5545,1.577
5546,1.599
5547,1.667
5548,1.808
5549,2.025
5550,2.289
5551,2.568
5552,2.825
5553,3.049
5554,3.201
5555,3.28
5556,3.291
5557,3.291
5558,3.299
5559,3.317
5560,3.309
5561,3.259
5562,3.157
5563,3.013
5564,2.843
5565,2.676
5566,2.528
5567,2.409
5568,2.318
5569,2.253
5570,2.21
5571,2.17
5572,2.138
5573,2.101
5574,2.062
5575,2.018
5576,1.971
5577,1.924
5578,1.884
5579,1.845
5580,1.812
5581,1.787
5582,1.769
5583,1.754
5584,1.751
5585,1.743
5586,1.743
5587,1.743
5588,1.74
5589,1.74
5590,1.74
5591,1.736
5592,1.736
5593,1.736
5594,1.732
5595,1.732
5596,1.729
5597,1.725
5598,1.729
5599,1.725
5600,1.725
5601,1.729
5602,1.732
5603,1.743
5604,1.754
5605,1.761
5606,1.765
5607,1.761
5608,1.751
5609,1.743
5610,1.732
5611,1.725
5612,1.718
5613,1.714
5614,1.711
5615,1.707
5616,1.707
5617,1.707
5618,1.714
5619,1.725
5620,1.732
5621,1.74
5622,1.747
5623,1.754
5624,1.758
5625,1.765
5626,1.769
5627,1.772
5628,1.772
5629,1.776
5630,1.779
5631,1.776
5632,1.779
5633,1.779
5634,1.787
5635,1.794
5636,1.801
5637,1.808
5638,1.819
5639,1.826
5640,1.83
5641,1.834
5642,1.834
5643,1.834
5644,1.834
5645,1.837
5646,1.841
5647,1.841
5648,1.845
5649,1.848
5650,1.855
5651,1.866
5652,1.881
5653,1.888
5654,1.902
5655,1.917
5656,1.931
5657,1.949
5658,1.964
5659,1.975
5660,1.986
5661,1.989
5662,1.993
5663,1.996
5664,1.993
5665,1.989
5666,1.986
5667,1.986
5668,1.996
5669,2.004
5670,2.015
5671,2.022
5672,2.025
5673,2.029
5674,2.033
5675,2.033
5676,2.04
5677,2.051
5678,2.065
5679,2.08
5680,2.091
5681,2.098
5682,2.101
5683,2.094
5684,2.087
5685,2.065
5686,2.043
5687,2.029
5688,2.022
5689,2.018
5690,2.018
5691,2.018
5692,2.011
5693,2.0
5694,1.986
5695,1.971
5696,1.949
5697,1.928
5698,1.906
5699,1.888
5700,1.87
5701,1.852
5702,1.837
5703,1.819
5704,1.798
5705,1.779
5706,1.761
5707,1.747
5708,1.732
5709,1.725
5710,1.718
5711,1.714
5712,1.711
5713,1.711
5714,1.711
5715,1.704
5716,1.693
5717,1.682
5718,1.664
5719,1.646
5720,1.631
5721,1.609
5722,1.591
5723,1.581
5724,1.577
5725,1.581
5726,1.584
5727,1.599
5728,1.606
5729,1.609
5730,1.617
5731,1.624
5732,1.628
5733,1.635
5734,1.638
5735,1.642
5736,1.646
5737,1.653
5738,1.664
5739,1.671
5740,1.675
5741,1.675
5742,1.675
5743,1.664
5744,1.657
5745,1.646
5746,1.635
5747,1.624
5748,1.613
5749,1.606
5750,1.602
5751,1.609
5752,1.62
5753,1.628
5754,1.638
5755,1.642
5756,1.642
5757,1.638
5758,1.631
5759,1.628
5760,1.631
5761,1.631
5762,1.635
5763,1.635
5764,1.638
5765,1.642
5766,1.642
5767,1.642
5768,1.649
5769,1.657
5770,1.66
5771,1.667
5772,1.664
5773,1.66
5774,1.657
5775,1.653
5776,1.649
5777,1.646
5778,1.642
5779,1.646
5780,1.653
5781,1.664
5782,1.675
5783,1.682
5784,1.685
5785,1.689
5786,1.689
5787,1.689
5788,1.685
5789,1.678
5790,1.675
5791,1.675
5792,1.678
5793,1.675
5794,1.675
5795,1.671
5796,1.664
5797,1.657
5798,1.653
5799,1.646
5800,1.646
5801,1.646
5802,1.653
5803,1.66
5804,1.664
5805,1.664
5806,1.667
5807,1.667
5808,1.667
5809,1.664
5810,1.664
5811,1.66
5812,1.66
5813,1.657
5814,1.66
5815,1.657
5816,1.66
5817,1.664
5818,1.671
5819,1.682
5820,1.689
5821,1.7
5822,1.707
5823,1.707
5824,1.7
5825,1.693
5826,1.675
5827,1.66
5828,1.649
5829,1.638
5830,1.628
5831,1.624
5832,1.628
5833,1.635
5834,1.646
5835,1.66
5836,1.671
5837,1.678
5838,1.682
5839,1.685
5840,1.685
5841,1.678
5842,1.667
5843,1.66
5844,1.653
5845,1.646
5846,1.649
5847,1.657
5848,1.667
5849,1.678
5850,1.689
5851,1.696
5852,1.707
5853,1.711
5854,1.711
5855,1.707
5856,1.7
5857,1.693
5858,1.685
5859,1.682
5860,1.685
5861,1.685
5862,1.689
5863,1.696
5864,1.7
5865,1.704
5866,1.704
5867,1.696
5868,1.685
5869,1.667
5870,1.66
5871,1.657
5872,1.657
5873,1.66
5874,1.671
5875,1.682
5876,1.696
5877,1.707
5878,1.718
5879,1.725
5880,1.729
5881,1.736
5882,1.743
5883,1.754
5884,1.758
5885,1.761
5886,1.765
5887,1.761
5888,1.758
5889,1.754
5890,1.751
5891,1.736
5892,1.729
5893,1.725
5894,1.722
5895,1.722
5896,1.729
5897,1.736
5898,1.743
5899,1.754
5900,1.765
5901,1.765
5902,1.769
5903,1.772
5904,1.776
5905,1.779
5906,1.783
5907,1.779
5908,1.776
5909,1.772
5910,1.761
5911,1.747
5912,1.736
5913,1.725
5914,1.722
5915,1.718
5916,1.725
5917,1.732
5918,1.74
5919,1.74
5920,1.74
5921,1.736
5922,1.74
5923,1.736
5924,1.736
5925,1.74
5926,1.743
5927,1.747
5928,1.751
5929,1.754
5930,1.754
5931,1.754
5932,1.754
5933,1.758
5934,1.754
5935,1.758
5936,1.758
5937,1.761
5938,1.765
5939,1.769
5940,1.769
5941,1.769
5942,1.769
5943,1.765
5944,1.765
5945,1.758
5946,1.747
5947,1.74
5948,1.725
5949,1.704
5950,1.678
5951,1.646
5952,1.606
5953,1.573
5954,1.559
5955,1.577
5956,1.635
5957,1.747
5958,1.921
5959,2.141
5960,2.387
5961,2.637
5962,2.875
5963,3.074
5964,3.186
5965,3.244
5966,3.28
5967,3.32
5968,3.356
5969,3.374
5970,3.346
5971,3.28
5972,3.176
5973,3.031
5974,2.854
5975,2.666
5976,2.492
5977,2.344
5978,2.235
5979,2.152
5980,2.098
5981,2.058
5982,2.022
5983,1.989
5984,1.96
5985,1.931
5986,1.902
5987,1.874
5988,1.837
5989,1.805
5990,1.772
5991,1.743
5992,1.725
5993,1.714
5994,1.707
5995,1.704
5996,1.7
5997,1.7
5998,1.704
5999,1.7
6000,1.7
6001,1.696
6002,1.689
6003,1.682
6004,1.678
6005,1.682
6006,1.689
6007,1.696
6008,1.704
6009,1.707
6010,1.714
6011,1.714
6012,1.714
6013,1.711
6014,1.707
6015,1.707
6016,1.704
6017,1.704
6018,1.707
6019,1.711
6020,1.714
6021,1.718
6022,1.718
6023,1.722
6024,1.718
6025,1.718
6026,1.718
6027,1.718
6028,1.718
6029,1.722
6030,1.725
6031,1.722
6032,1.725
6033,1.732
6034,1.736
6035,1.74
6036,1.736
6037,1.736
6038,1.732
6039,1.732
6040,1.736
6041,1.743
6042,1.74
6043,1.743
6044,1.743
6045,1.736
6046,1.732
6047,1.729
6048,1.729
6049,1.725
6050,1.729
6051,1.74
6052,1.754
6053,1.765
6054,1.776
6055,1.783
6056,1.787
6057,1.79
6058,1.794
6059,1.798
6060,1.801
6061,1.808
6062,1.812
6063,1.826
6064,1.83
6065,1.841
6066,1.852
6067,1.866
6068,1.877
6069,1.888
6070,1.895
6071,1.899
6072,1.899
6073,1.906
6074,1.906
6075,1.906
6076,1.899
6077,1.888
6078,1.87
6079,1.841
6080,1.805
6081,1.779
6082,1.765
6083,1.769
6084,1.79
6085,1.816
6086,1.852
6087,1.888
6088,1.921
6089,1.953
6090,1.978
6091,1.996
6092,2.011
6093,2.022
6094,2.033
6095,2.054
6096,2.08
6097,2.119
6098,2.17
6099,2.221
6100,2.268
6101,2.297
6102,2.311
6103,2.3
6104,2.271
6105,2.224
6106,2.166
6107,2.098
6108,2.036
6109,1.989
6110,1.953
6111,1.924
6112,1.902
6113,1.884
6114,1.877
6115,1.866
6116,1.855
6117,1.841
6118,1.812
6119,1.779
6120,1.747
6121,1.711
6122,1.671
6123,1.635
6124,1.602
6125,1.577
6126,1.562
6127,1.562
6128,1.57
6129,1.577
6130,1.591
6131,1.602
6132,1.613
6133,1.624
6134,1.631
6135,1.638
6136,1.646
6137,1.653
6138,1.66
6139,1.667
6140,1.675
6141,1.682
6142,1.689
6143,1.693
6144,1.696
6145,1.704
6146,1.707
6147,1.707
6148,1.711
6149,1.718
6150,1.725
6151,1.732
6152,1.747
6153,1.758
6154,1.765
6155,1.772
6156,1.779
6157,1.783
6158,1.779
6159,1.769
6160,1.747
6161,1.722
6162,1.7
6163,1.678
6164,1.664
6165,1.657
6166,1.657
6167,1.664
6168,1.671
6169,1.682
6170,1.693
6171,1.704
6172,1.711
6173,1.711
6174,1.714
6175,1.714
6176,1.718
6177,1.718
6178,1.722
6179,1.722
6180,1.722
6181,1.725
6182,1.725
6183,1.722
6184,1.725
6185,1.725
6186,1.729
6187,1.732
6188,1.732
6189,1.732
6190,1.729
6191,1.729
6192,1.732
6193,1.729
6194,1.729
6195,1.725
6196,1.729
6197,1.732
6198,1.736
6199,1.736
6200,1.732
6201,1.732
6202,1.736
6203,1.743
6204,1.747
6205,1.754
6206,1.769
6207,1.779
6208,1.794
6209,1.812
6210,1.826
6211,1.845
6212,1.859
6213,1.874
6214,1.888
6215,1.892
6216,1.895
6217,1.892
6218,1.881
6219,1.863
6220,1.841
6221,1.826
6222,1.819
6223,1.819
6224,1.816
6225,1.812
6226,1.801
6227,1.798
6228,1.79
6229,1.783
6230,1.772
6231,1.761
6232,1.747
6233,1.74
6234,1.736
6235,1.729
6236,1.725
6237,1.711
6238,1.704
6239,1.7
6240,1.7
6241,1.707
6242,1.714
6243,1.725
6244,1.736
6245,1.747
6246,1.761
6247,1.772
6248,1.779
6249,1.787
6250,1.794
6251,1.805
6252,1.812
6253,1.816
6254,1.819
6255,1.819
6256,1.816
6257,1.812
6258,1.798
6259,1.779
6260,1.761
6261,1.736
6262,1.707
6263,1.675
6264,1.642
6265,1.609
6266,1.577
6267,1.552
6268,1.53
6269,1.501
6270,1.476
6271,1.447
6272,1.421
6273,1.4
6274,1.382
6275,1.367
6276,1.353
6277,1.353
6278,1.36
6279,1.382
6280,1.403
6281,1.436
6282,1.468
6283,1.505
6284,1.534
6285,1.555
6286,1.573
6287,1.588
6288,1.609
6289,1.642
6290,1.678
6291,1.7
6292,1.718
6293,1.729
6294,1.732
6295,1.732
6296,1.725
6297,1.718
6298,1.704
6299,1.689
6300,1.685
6301,1.678
6302,1.667
6303,1.66
6304,1.657
6305,1.653
6306,1.653
6307,1.653
6308,1.653
6309,1.646
6310,1.642
6311,1.642
6312,1.649
6313,1.664
6314,1.678
6315,1.693
6316,1.707
6317,1.725
6318,1.751
6319,1.783
6320,1.812
6321,1.845
6322,1.877
6323,1.902
6324,1.928
6325,1.953
6326,1.971
6327,1.978
6328,1.982
6329,1.975
6330,1.964
6331,1.957
6332,1.953
6333,1.949
6334,1.946
6335,1.942
6336,1.942
6337,1.942
6338,1.942
6339,1.939
6340,1.939
6341,1.931
6342,1.924
6343,1.917
6344,1.913
6345,1.906
6346,1.902
6347,1.902
6348,1.902
6349,1.899
6350,1.888
6351,1.874
6352,1.855
6353,1.834
6354,1.812
6355,1.79
6356,1.761
6357,1.743
6358,1.74
6359,1.761
6360,1.826
6361,1.935
6362,2.112
6363,2.333
6364,2.572
6365,2.814
6366,3.035
6367,3.194
6368,3.284
6369,3.32
6370,3.335
6371,3.364
6372,3.403
6373,3.429
6374,3.411
6375,3.349
6376,3.259
6377,3.118
6378,2.955
6379,2.778
6380,2.615
6381,2.47
6382,2.358
6383,2.271
6384,2.213
6385,2.174
6386,2.156
6387,2.141
6388,2.134
6389,2.134
6390,2.127
6391,2.116
6392,2.094
6393,2.065
6394,2.029
6395,1.996
6396,1.968
6397,1.946
6398,1.931
6399,1.917
6400,1.906
6401,1.895
6402,1.888
6403,1.884
6404,1.881
6405,1.877
6406,1.87
6407,1.859
6408,1.845
6409,1.823
6410,1.801
6411,1.787
6412,1.772
6413,1.772
6414,1.776
6415,1.787
6416,1.801
6417,1.816
6418,1.826
6419,1.834
6420,1.837
6421,1.834
6422,1.83
6423,1.826
6424,1.823
6425,1.819
6426,1.816
6427,1.812
6428,1.805
6429,1.794
6430,1.776
6431,1.751
6432,1.725
6433,1.7
6434,1.682
6435,1.664
6436,1.649
6437,1.638
6438,1.624
6439,1.609
6440,1.599
6441,1.599
6442,1.609
6443,1.635
6444,1.664
6445,1.696
6446,1.725
6447,1.747
6448,1.765
6449,1.783
6450,1.798
6451,1.816
6452,1.83
6453,1.834
6454,1.837
6455,1.834
6456,1.826
6457,1.819
6458,1.808
6459,1.805
6460,1.808
6461,1.816
6462,1.834
6463,1.863
6464,1.881
6465,1.906
6466,1.928
6467,1.949
6468,1.96
6469,1.971
6470,1.975
6471,1.975
6472,1.978
6473,1.989
6474,1.996
6475,2.007
6476,2.022
6477,2.04
6478,2.062
6479,2.094
6480,2.123
6481,2.156
6482,2.181
6483,2.206
6484,2.232
6485,2.253
6486,2.279
6487,2.308
6488,2.336
6489,2.362
6490,2.383
6491,2.394
6492,2.402
6493,2.405
6494,2.409
6495,2.409
6496,2.402
6497,2.394
6498,2.383
6499,2.373
6500,2.362
6501,2.344
6502,2.326
6503,2.308
6504,2.286
6505,2.261
6506,2.239
6507,2.206
6508,2.177
6509,2.148
6510,2.119
6511,2.094
6512,2.072
6513,2.054
6514,2.04
6515,2.018
6516,1.996
6517,1.971
6518,1.939
6519,1.91
6520,1.877
6521,1.845
6522,1.816
6523,1.798
6524,1.783
6525,1.776
6526,1.769
6527,1.761
6528,1.751
6529,1.736
6530,1.725
6531,1.718
6532,1.711
6533,1.707
6534,1.704
6535,1.7
6536,1.696
6537,1.689
6538,1.685
6539,1.678
6540,1.667
6541,1.66
6542,1.657
6543,1.657
6544,1.657
6545,1.66
6546,1.667
6547,1.675
6548,1.678
6549,1.685
6550,1.685
6551,1.693
6552,1.7
6553,1.707
6554,1.714
6555,1.718
6556,1.722
6557,1.722
6558,1.725
6559,1.722
6560,1.711
6561,1.693
6562,1.671
6563,1.649
6564,1.631
6565,1.613
6566,1.609
6567,1.606
6568,1.606
6569,1.606
6570,1.609
6571,1.617
6572,1.624
6573,1.635
6574,1.646
6575,1.653
6576,1.657
6577,1.66
6578,1.664
6579,1.667
6580,1.671
6581,1.682
6582,1.696
6583,1.711
6584,1.729
6585,1.747
6586,1.761
6587,1.776
6588,1.779
6589,1.779
6590,1.776
6591,1.776
6592,1.779
6593,1.787
6594,1.798
6595,1.808
6596,1.816
6597,1.823
6598,1.823
6599,1.823
6600,1.819
6601,1.823
6602,1.826
6603,1.837
6604,1.845
6605,1.852
6606,1.855
6607,1.863
6608,1.87
6609,1.877
6610,1.888
6611,1.895
6612,1.902
6613,1.91
6614,1.917
6615,1.917
6616,1.921
6617,1.928
6618,1.935
6619,1.942
6620,1.949
6621,1.953
6622,1.957
6623,1.957
6624,1.957
6625,1.957
6626,1.957
6627,1.964
6628,1.971
6629,1.978
6630,1.989
6631,1.996
6632,2.004
6633,2.007
6634,2.011
6635,2.011
6636,2.007
6637,1.996
6638,1.989
6639,1.982
6640,1.975
6641,1.975
6642,1.978
6643,1.978
6644,1.982
6645,1.986
6646,1.989
6647,1.993
6648,1.996
6649,2.0
6650,2.004
6651,2.011
6652,2.018
6653,2.025
6654,2.033
6655,2.036
6656,2.043
6657,2.051
6658,2.047
6659,2.051
6660,2.054
6661,2.054
6662,2.054
6663,2.054
6664,2.047
6665,2.04
6666,2.036
6667,2.036
6668,2.04
6669,2.043
6670,2.051
6671,2.051
6672,2.054
6673,2.062
6674,2.072
6675,2.083
6676,2.094
6677,2.105
6678,2.116
6679,2.13
6680,2.13
6681,2.127
6682,2.123
6683,2.109
6684,2.094
6685,2.076
6686,2.062
6687,2.047
6688,2.036
6689,2.022
6690,2.011
6691,1.996
6692,1.989
6693,1.986
6694,1.989
6695,1.996
6696,2.007
6697,2.018
6698,2.029
6699,2.043
6700,2.054
6701,2.058
6702,2.058
6703,2.054
6704,2.043
6705,2.025
6706,2.007
6707,1.993
6708,1.982
6709,1.971
6710,1.968
6711,1.971
6712,1.968
6713,1.971
6714,1.971
6715,1.971
6716,1.971
6717,1.975
6718,1.975
6719,1.975
6720,1.975
6721,1.978
6722,1.978
6723,1.978
6724,1.975
6725,1.975
6726,1.978
6727,1.982
6728,1.986
6729,1.993
6730,2.0
6731,2.007
6732,2.011
6733,2.018
6734,2.022
6735,2.033
6736,2.04
6737,2.051
6738,2.065
6739,2.08
6740,2.094
6741,2.109
6742,2.119
6743,2.127
6744,2.123
6745,2.112
6746,2.091
6747,2.062
6748,2.018
6749,1.968
6750,1.902
6751,1.83
6752,1.758
6753,1.693
6754,1.653
6755,1.664
6756,1.74
6757,1.906
6758,2.127
6759,2.373
6760,2.615
6761,2.832
6762,2.984
6763,3.063
6764,3.078
6765,3.063
6766,3.038
6767,3.013
6768,2.962
6769,2.865
6770,2.716
6771,2.532
6772,2.333
6773,2.145
6774,1.996
6775,1.913
6776,1.892
6777,1.924
6778,2.004
6779,2.116
6780,2.246
6781,2.387
6782,2.521
6783,2.637
6784,2.716
6785,2.745
6786,2.731
6787,2.684
6788,2.6
6789,2.503
6790,2.402
6791,2.311
6792,2.232
6793,2.163
6794,2.112
6795,2.065
6796,2.025
6797,1.993
6798,1.968
6799,1.946
6800,1.931
6801,1.917
6802,1.902
6803,1.884
6804,1.866
6805,1.845
6806,1.823
6807,1.794
6808,1.765
6809,1.732
6810,1.704
6811,1.678
6812,1.66
6813,1.649
6814,1.649
6815,1.66
6816,1.682
6817,1.7
6818,1.718
6819,1.729
6820,1.736
6821,1.743
6822,1.754
6823,1.765
6824,1.776
6825,1.79
6826,1.808
6827,1.826
6828,1.848
6829,1.863
6830,1.877
6831,1.892
6832,1.906
6833,1.91
6834,1.91
6835,1.902
6836,1.895
6837,1.888
6838,1.881
6839,1.881
6840,1.881
6841,1.881
6842,1.874
6843,1.87
6844,1.87
6845,1.866
6846,1.859
6847,1.855
6848,1.855
6849,1.859
6850,1.866
6851,1.877
6852,1.888
6853,1.895
6854,1.91
6855,1.924
6856,1.939
6857,1.949
6858,1.953
6859,1.953
6860,1.953
6861,1.953
6862,1.96
6863,1.96
6864,1.957
6865,1.96
6866,1.96
6867,1.971
6868,1.986
6869,2.0
6870,2.015
6871,2.025
6872,2.033
6873,2.04
6874,2.043
6875,2.051
6876,2.058
6877,2.065
6878,2.076
6879,2.083
6880,2.094
6881,2.105
6882,2.116
6883,2.127
6884,2.141
6885,2.148
6886,2.156
6887,2.159
6888,2.166
6889,2.17
6890,2.17
6891,2.163
6892,2.152
6893,2.141
6894,2.127
6895,2.123
6896,2.112
6897,2.105
6898,2.101
6899,2.091
6900,2.076
6901,2.062
6902,2.047
6903,2.036
6904,2.022
6905,2.007
6906,1.989
6907,1.964
6908,1.939
6909,1.913
6910,1.888
6911,1.859
6912,1.837
6913,1.816
6914,1.798
6915,1.779
6916,1.761
6917,1.747
6918,1.725
6919,1.707
6920,1.689
6921,1.667
6922,1.649
6923,1.638
6924,1.628
6925,1.617
6926,1.609
6927,1.606
6928,1.602
6929,1.599
6930,1.595
6931,1.595
6932,1.591
6933,1.591
6934,1.591
6935,1.595
6936,1.595
6937,1.591
6938,1.591
6939,1.591
6940,1.588
6941,1.581
6942,1.577
6943,1.577
6944,1.577
6945,1.577
6946,1.577
6947,1.581
6948,1.584
6949,1.588
6950,1.584
6951,1.588
6952,1.595
6953,1.599
6954,1.599
6955,1.602
6956,1.602
6957,1.599
6958,1.584
6959,1.573
6960,1.57
6961,1.566
6962,1.57
6963,1.573
6964,1.577
6965,1.584
6966,1.591
6967,1.595
6968,1.602
6969,1.613
6970,1.62
6971,1.628
6972,1.628
6973,1.631
6974,1.638
6975,1.646
6976,1.653
6977,1.653
6978,1.653
6979,1.653
6980,1.653
6981,1.649
6982,1.646
6983,1.638
6984,1.638
6985,1.638
6986,1.642
6987,1.649
6988,1.657
6989,1.664
6990,1.671
6991,1.675
6992,1.675
6993,1.667
6994,1.66
6995,1.657
6996,1.66
6997,1.671
6998,1.685
6999,1.696
7000,1.704
7001,1.711
7002,1.714
7003,1.714
7004,1.714
7005,1.714
7006,1.714
7007,1.707
7008,1.704
7009,1.7
7010,1.7
7011,1.704
7012,1.711
7013,1.714
7014,1.718
7015,1.718
7016,1.718
7017,1.714
7018,1.714
7019,1.711
7020,1.711
7021,1.707
7022,1.707
7023,1.707
7024,1.711
7025,1.722
7026,1.729
7027,1.729
7028,1.725
7029,1.718
7030,1.711
7031,1.704
7032,1.7
7033,1.7
7034,1.7
7035,1.7
7036,1.7
7037,1.696
7038,1.7
7039,1.7
7040,1.7
7041,1.7
7042,1.696
7043,1.693
7044,1.693
7045,1.693
7046,1.693
7047,1.689
7048,1.689
7049,1.689
7050,1.696
7051,1.704
7052,1.711
7053,1.718
7054,1.725
7055,1.729
7056,1.729
7057,1.729
7058,1.729
7059,1.725
7060,1.725
7061,1.722
7062,1.718
7063,1.714
7064,1.718
7065,1.722
7066,1.725
7067,1.729
7068,1.732
7069,1.729
7070,1.729
7071,1.729
7072,1.729
7073,1.729
7074,1.725
7075,1.722
7076,1.714
7077,1.707
7078,1.7
7079,1.704
7080,1.704
7081,1.711
7082,1.722
7083,1.732
7084,1.743
7085,1.754
7086,1.761
7087,1.765
7088,1.769
7089,1.772
7090,1.779
7091,1.783
7092,1.779
7093,1.776
7094,1.769
7095,1.761
7096,1.754
7097,1.754
7098,1.754
7099,1.754
7100,1.761
7101,1.765
7102,1.772
7103,1.779
7104,1.779
7105,1.779
7106,1.772
7107,1.765
7108,1.751
7109,1.74
7110,1.729
7111,1.725
7112,1.722
7113,1.722
7114,1.725
7115,1.729
7116,1.732
7117,1.729
7118,1.725
7119,1.722
7120,1.722
7121,1.729
7122,1.74
7123,1.743
7124,1.743
7125,1.743
7126,1.743
7127,1.743
7128,1.743
7129,1.747
7130,1.747
7131,1.743
7132,1.74
7133,1.74
7134,1.736
7135,1.74
7136,1.74
7137,1.74
7138,1.736
7139,1.736
7140,1.732
7141,1.732
7142,1.729
7143,1.729
7144,1.732
7145,1.736
7146,1.743
7147,1.751
7148,1.754
7149,1.747
7150,1.732
7151,1.714
7152,1.689
7153,1.657
7154,1.624
7155,1.581
7156,1.541
7157,1.523
7158,1.523
7159,1.566
7160,1.66
7161,1.816
7162,2.029
7163,2.279
7164,2.553
7165,2.839
7166,3.085
7167,3.262
7168,3.371
7169,3.447
7170,3.512
7171,3.555
7172,3.577
7173,3.57
7174,3.526
7175,3.432
7176,3.288
7177,3.078
7178,2.85
7179,2.633
7180,2.463
7181,2.333
7182,2.239
7183,2.17
7184,2.119
7185,2.072
7186,2.029
7187,1.993
7188,1.96
7189,1.931
7190,1.906
7191,1.881
7192,1.852
7193,1.826
7194,1.805
7195,1.779
7196,1.754
7197,1.729
7198,1.707
7199,1.678
7200,1.657
7201,1.635
7202,1.617
7203,1.602
7204,1.591
7205,1.588
7206,1.581
7207,1.573
7208,1.573
7209,1.566
7210,1.562
7211,1.559
7212,1.555
7213,1.548
7214,1.537
7215,1.526
7216,1.519
7217,1.515
7218,1.515
7219,1.523
7220,1.523
7221,1.53
7222,1.541
7223,1.555
7224,1.57
7225,1.581
7226,1.588
7227,1.591
7228,1.595
7229,1.595
7230,1.599
7231,1.602
7232,1.609
7233,1.617
7234,1.62
7235,1.628
7236,1.631
7237,1.628
7238,1.62
7239,1.609
7240,1.606
7241,1.609
7242,1.606
7243,1.606
7244,1.609
7245,1.602
7246,1.591
7247,1.584
7248,1.584
7249,1.591
7250,1.602
7251,1.613
7252,1.624
7253,1.635
7254,1.642
7255,1.653
7256,1.664
7257,1.675
7258,1.682
7259,1.682
7260,1.685
7261,1.685
7262,1.689
7263,1.689
7264,1.689
7265,1.7
7266,1.711
7267,1.722
7268,1.732
7269,1.74
7270,1.747
7271,1.743
7272,1.736
7273,1.725
7274,1.722
7275,1.722
7276,1.725
7277,1.729
7278,1.74
7279,1.754
7280,1.776
7281,1.794
7282,1.816
7283,1.834
7284,1.848
7285,1.863
7286,1.877
7287,1.888
7288,1.902
7289,1.913
7290,1.924
7291,1.935
7292,1.949
7293,1.957
7294,1.968
7295,1.975
7296,1.978
7297,1.986
7298,1.989
7299,1.993
7300,1.993
7301,1.996
7302,1.996
7303,2.0
7304,2.004
7305,2.007
7306,2.011
7307,2.015
7308,2.015
7309,2.004
7310,1.986
7311,1.957
7312,1.928
7313,1.906
7314,1.888
7315,1.877
7316,1.87
7317,1.863
7318,1.855
7319,1.852
7320,1.848
7321,1.845
7322,1.837
7323,1.83
7324,1.823
7325,1.816
7326,1.812
7327,1.805
7328,1.798
7329,1.794
7330,1.79
7331,1.79
7332,1.79
7333,1.79
7334,1.794
7335,1.798
7336,1.808
7337,1.816
7338,1.826
7339,1.83
7340,1.834
7341,1.841
7342,1.852
7343,1.863
7344,1.874
7345,1.881
7346,1.881
7347,1.884
7348,1.881
7349,1.877
7350,1.863
7351,1.845
7352,1.83
7353,1.816
7354,1.812
7355,1.812
7356,1.816
7357,1.816
7358,1.808
7359,1.794
7360,1.783
7361,1.761
7362,1.74
7363,1.714
7364,1.689
7365,1.667
7366,1.657
7367,1.653
7368,1.653
7369,1.66
7370,1.667
7371,1.678
7372,1.682
7373,1.685
7374,1.689
7375,1.685
7376,1.682
7377,1.671
7378,1.664
7379,1.66
7380,1.657
7381,1.66
7382,1.664
7383,1.664
7384,1.671
7385,1.675
7386,1.675
7387,1.671
7388,1.667
7389,1.66
7390,1.653
7391,1.646
7392,1.638
7393,1.628
7394,1.62
7395,1.609
7396,1.606
7397,1.599
7398,1.591
7399,1.584
7400,1.57
7401,1.552
7402,1.537
7403,1.526
7404,1.512
7405,1.505
7406,1.501
7407,1.497
7408,1.497
7409,1.501
7410,1.501
7411,1.501
7412,1.497
7413,1.497
7414,1.494
7415,1.49
7416,1.487
7417,1.483
7418,1.483
7419,1.483
7420,1.487
7421,1.49
7422,1.497
7423,1.505
7424,1.508
7425,1.519
7426,1.53
7427,1.548
7428,1.573
7429,1.606
7430,1.635
7431,1.657
7432,1.667
7433,1.675
7434,1.685
7435,1.696
7436,1.707
7437,1.718
7438,1.729
7439,1.743
7440,1.754
7441,1.761
7442,1.761
7443,1.761
7444,1.758
7445,1.758
7446,1.761
7447,1.761
7448,1.758
7449,1.758
7450,1.761
7451,1.772
7452,1.787
7453,1.805
7454,1.826
7455,1.848
7456,1.87
7457,1.899
7458,1.928
7459,1.957
7460,1.989
7461,2.022
7462,2.051
7463,2.069
7464,2.072
7465,2.062
7466,2.033
7467,1.993
7468,1.953
7469,1.902
7470,1.859
7471,1.826
7472,1.805
7473,1.801
7474,1.801
7475,1.808
7476,1.819
7477,1.83
7478,1.845
7479,1.855
7480,1.863
7481,1.866
7482,1.863
7483,1.863
7484,1.859
7485,1.852
7486,1.845
7487,1.841
7488,1.834
7489,1.826
7490,1.823
7491,1.816
7492,1.805
7493,1.801
7494,1.798
7495,1.794
7496,1.798
7497,1.805
7498,1.812
7499,1.83
7500,1.852
7501,1.866
7502,1.881
7503,1.895
7504,1.91
7505,1.924
7506,1.939
7507,1.942
7508,1.946
7509,1.949
7510,1.953
7511,1.957
7512,1.949
7513,1.942
7514,1.935
7515,1.928
7516,1.924
7517,1.924
7518,1.924
7519,1.928
7520,1.928
7521,1.931
7522,1.935
7523,1.935
7524,1.939
7525,1.942
7526,1.939
7527,1.931
7528,1.921
7529,1.913
7530,1.902
7531,1.899
7532,1.888
7533,1.881
7534,1.866
7535,1.852
7536,1.841
7537,1.83
7538,1.826
7539,1.83
7540,1.837
7541,1.852
7542,1.863
7543,1.87
7544,1.874
7545,1.87
7546,1.87
7547,1.874
7548,1.884
7549,1.888
7550,1.884
7551,1.874
7552,1.863
7553,1.848
7554,1.837
7555,1.823
7556,1.812
7557,1.808
7558,1.808
7559,1.812
7560,1.819
7561,1.826
7562,1.83
7563,1.841
7564,1.852
7565,1.859
7566,1.859
7567,1.859
7568,1.859
7569,1.852
7570,1.845
7571,1.837
7572,1.823
7573,1.801
7574,1.776
7575,1.74
7576,1.7
7577,1.66
7578,1.638
7579,1.649
7580,1.707
7581,1.826
7582,2.022
7583,2.261
7584,2.514
7585,2.767
7586,2.987
7587,3.147
7588,3.219
7589,3.248
7590,3.262
7591,3.291
7592,3.338
7593,3.36
7594,3.342
7595,3.277
7596,3.165
7597,3.016
7598,2.857
7599,2.702
7600,2.572
7601,2.47
7602,2.394
7603,2.336
7604,2.286
7605,2.242
7606,2.203
7607,2.163
7608,2.123
7609,2.083
7610,2.036
7611,1.996
7612,1.96
7613,1.928
7614,1.906
7615,1.888
7616,1.877
7617,1.87
7618,1.866
7619,1.866
7620,1.863
7621,1.866
7622,1.863
7623,1.863
7624,1.859
7625,1.859
7626,1.855
7627,1.855
7628,1.855
7629,1.855
7630,1.859
7631,1.859
7632,1.863
7633,1.87
7634,1.874
7635,1.877
7636,1.881
7637,1.884
7638,1.888
7639,1.892
7640,1.892
7641,1.899
7642,1.899
7643,1.899
7644,1.899
7645,1.902
7646,1.906
7647,1.91
7648,1.91
7649,1.91
7650,1.91
7651,1.906
7652,1.902
7653,1.895
7654,1.884
7655,1.877
7656,1.874
7657,1.877
7658,1.881
7659,1.884
7660,1.888
7661,1.892
7662,1.895
7663,1.899
7664,1.895
7665,1.892
7666,1.892
7667,1.888
7668,1.888
7669,1.892
7670,1.895
7671,1.902
7672,1.91
7673,1.917
7674,1.924
7675,1.924
7676,1.928
7677,1.931
7678,1.935
7679,1.939
7680,1.946
7681,1.953
7682,1.96
7683,1.971
7684,1.982
7685,1.989
7686,1.996
7687,2.004
7688,2.007
7689,2.011
7690,2.018
7691,2.029
7692,2.04
7693,2.047
7694,2.058
7695,2.062
7696,2.065
7697,2.065
7698,2.065
7699,2.069
7700,2.069
7701,2.072
7702,2.072
7703,2.076
7704,2.083
7705,2.087
7706,2.098
7707,2.101
7708,2.105
7709,2.101
7710,2.098
7711,2.094
7712,2.091
7713,2.091
7714,2.091
7715,2.094
7716,2.094
7717,2.094
7718,2.094
7719,2.094
7720,2.098
7721,2.094
7722,2.087
7723,2.08
7724,2.069
7725,2.058
7726,2.051
7727,2.043
7728,2.029
7729,2.007
7730,1.989
7731,1.964
7732,1.942
7733,1.917
7734,1.895
7735,1.87
7736,1.845
7737,1.816
7738,1.787
7739,1.751
7740,1.711
7741,1.667
7742,1.624
7743,1.584
7744,1.548
7745,1.526
7746,1.515
7747,1.512
7748,1.523
7749,1.541
7750,1.552
7751,1.57
7752,1.581
7753,1.599
7754,1.617
7755,1.638
7756,1.66
7757,1.682
7758,1.707
7759,1.729
7760,1.754
7761,1.769
7762,1.779
7763,1.787
7764,1.79
7765,1.787
7766,1.787
7767,1.783
7768,1.779
7769,1.783
7770,1.783
7771,1.79
7772,1.787
7773,1.787
7774,1.783
7775,1.779
7776,1.772
7777,1.761
7778,1.754
7779,1.747
7780,1.74
7781,1.74
7782,1.743
7783,1.743
7784,1.743
7785,1.747
7786,1.747
7787,1.743
7788,1.74
7789,1.736
7790,1.732
7791,1.729
7792,1.732
7793,1.732
7794,1.736
7795,1.74
7796,1.74
7797,1.74
7798,1.743
7799,1.743
7800,1.743
7801,1.743
7802,1.74
7803,1.743
7804,1.736
7805,1.736
7806,1.732
7807,1.725
7808,1.718
7809,1.711
7810,1.707
7811,1.704
7812,1.704
7813,1.704
7814,1.711
7815,1.711
7816,1.722
7817,1.729
7818,1.736
7819,1.743
7820,1.747
7821,1.751
7822,1.754
7823,1.754
7824,1.758
7825,1.758
7826,1.761
7827,1.765
7828,1.769
7829,1.776
7830,1.779
7831,1.783
7832,1.787
7833,1.79
7834,1.79
7835,1.794
7836,1.794
7837,1.79
7838,1.787
7839,1.783
7840,1.776
7841,1.772
7842,1.772
7843,1.769
7844,1.765
7845,1.761
7846,1.761
7847,1.758
7848,1.754
7849,1.754
7850,1.754
7851,1.751
7852,1.743
7853,1.736
7854,1.725
7855,1.714
7856,1.704
7857,1.7
7858,1.689
7859,1.682
7860,1.675
7861,1.675
7862,1.671
7863,1.675
7864,1.682
7865,1.689
7866,1.696
7867,1.693
7868,1.689
7869,1.682
7870,1.678
7871,1.675
7872,1.678
7873,1.678
7874,1.682
7875,1.685
7876,1.693
7877,1.696
7878,1.707
7879,1.718
7880,1.729
7881,1.743
7882,1.754
7883,1.769
7884,1.779
7885,1.79
7886,1.798
7887,1.801
7888,1.801
7889,1.798
7890,1.798
7891,1.79
7892,1.787
7893,1.787
7894,1.787
7895,1.79
7896,1.79
7897,1.79
7898,1.794
7899,1.798
7900,1.801
7901,1.794
7902,1.79
7903,1.783
7904,1.776
7905,1.772
7906,1.772
7907,1.772
7908,1.776
7909,1.779
7910,1.783
7911,1.787
7912,1.787
7913,1.79
7914,1.794
7915,1.798
7916,1.798
7917,1.798
7918,1.798
7919,1.801
7920,1.805
7921,1.812
7922,1.826
7923,1.834
7924,1.855
7925,1.874
7926,1.892
7927,1.906
7928,1.917
7929,1.924
7930,1.928
7931,1.931
7932,1.928
7933,1.928
7934,1.924
7935,1.921
7936,1.928
7937,1.935
7938,1.949
7939,1.968
7940,1.982
7941,2.0
7942,2.022
7943,2.036
7944,2.043
7945,2.04
7946,2.036
7947,2.029
7948,2.018
7949,2.011
7950,2.004
7951,1.996
7952,1.989
7953,1.993
7954,2.0
7955,2.0
7956,1.996
7957,1.986
7958,1.978
7959,1.975
7960,1.975
7961,1.978
7962,1.986
7963,1.993
7964,2.0
7965,2.007
7966,2.011
7967,2.007
7968,2.0
7969,1.993
7970,1.986
7971,1.978
7972,1.975
7973,1.971
7974,1.964
7975,1.96
7976,1.96
7977,1.957
7978,1.96
7979,1.968
7980,1.971
7981,1.975
7982,1.971
7983,1.968
7984,1.964
7985,1.957
7986,1.949
7987,1.946
7988,1.935
7989,1.928
7990,1.924
7991,1.913
7992,1.899
7993,1.877
7994,1.852
7995,1.819
7996,1.783
7997,1.74
7998,1.7
7999,1.657
8000,1.635
8001,1.653
8002,1.725
8003,1.877
8004,2.105
8005,2.369
8006,2.64
8007,2.893
8008,3.107
8009,3.244
8010,3.299
8011,3.309
8012,3.306
8013,3.317
8014,3.335
8015,3.324
8016,3.273
8017,3.168
8018,3.024
8019,2.857
8020,2.684
8021,2.543
8022,2.427
8023,2.34
8024,2.279
8025,2.228
8026,2.188
8027,2.148
8028,2.112
8029,2.072
8030,2.029
8031,1.982
8032,1.931
8033,1.888
8034,1.852
8035,1.823
8036,1.798
8037,1.779
8038,1.769
8039,1.758
8040,1.754
8041,1.758
8042,1.751
8043,1.743
8044,1.732
8045,1.722
8046,1.714
8047,1.711
8048,1.711
8049,1.714
8050,1.718
8051,1.725
8052,1.732
8053,1.736
8054,1.74
8055,1.743
8056,1.747
8057,1.751
8058,1.751
8059,1.754
8060,1.754
8061,1.754
8062,1.754
8063,1.754
8064,1.747
8065,1.743
8066,1.747
8067,1.751
8068,1.754
8069,1.758
8070,1.761
8071,1.765
8072,1.769
8073,1.776
8074,1.783
8075,1.787
8076,1.794
8077,1.801
8078,1.805
8079,1.808
8080,1.812
8081,1.812
8082,1.808
8083,1.805
8084,1.801
8085,1.798
8086,1.798
8087,1.798
8088,1.801
8089,1.808
8090,1.816
8091,1.823
8092,1.83
8093,1.834
8094,1.841
8095,1.845
8096,1.848
8097,1.855
8098,1.863
8099,1.87
8100,1.874
8101,1.877
8102,1.884
8103,1.888
8104,1.892
8105,1.899
8106,1.906
8107,1.91
8108,1.921
8109,1.931
8110,1.942
8111,1.953
8112,1.964
8113,1.975
8114,1.986
8115,1.993
8116,2.007
8117,2.018
8118,2.022
8119,2.025
8120,2.022
8121,2.022
8122,2.018
8123,2.018
8124,2.025
8125,2.033
8126,2.04
8127,2.051
8128,2.062
8129,2.069
8130,2.076
8131,2.083
8132,2.091
8133,2.091
8134,2.094
8135,2.094
8136,2.094
8137,2.094
8138,2.101
8139,2.101
8140,2.101
8141,2.101
8142,2.091
8143,2.083
8144,2.069
8145,2.058
8146,2.047
8147,2.04
8148,2.029
8149,2.015
8150,1.996
8151,1.978
8152,1.96
8153,1.942
8154,1.921
8155,1.899
8156,1.884
8157,1.866
8158,1.852
8159,1.841
8160,1.83
8161,1.816
8162,1.798
8163,1.779
8164,1.758
8165,1.732
8166,1.711
8167,1.693
8168,1.685
8169,1.678
8170,1.678
8171,1.678
8172,1.675
8173,1.671
8174,1.667
8175,1.664
8176,1.657
8177,1.653
8178,1.649
8179,1.646
8180,1.638
8181,1.638
8182,1.638
8183,1.638
8184,1.642
8185,1.646
8186,1.646
8187,1.649
8188,1.653
8189,1.657
8190,1.66
8191,1.664
8192,1.664
8193,1.66
8194,1.653
8195,1.638
8196,1.628
8197,1.624
8198,1.624
8199,1.624
8200,1.624
8201,1.624
8202,1.624
8203,1.628
8204,1.628
8205,1.631
8206,1.635
8207,1.642
8208,1.649
8209,1.657
8210,1.664
8211,1.667
8212,1.671
8213,1.675
8214,1.678
8215,1.675
8216,1.675
8217,1.675
8218,1.678
8219,1.682
8220,1.689
8221,1.693
8222,1.696
8223,1.696
8224,1.696
8225,1.693
8226,1.689
8227,1.689
8228,1.685
8229,1.685
8230,1.678
8231,1.675
8232,1.675
8233,1.675
8234,1.678
8235,1.682
8236,1.689
8237,1.689
8238,1.693
8239,1.696
8240,1.696
8241,1.696
8242,1.696
8243,1.696
8244,1.7
8245,1.7
8246,1.707
8247,1.707
8248,1.711
8249,1.718
8250,1.725
8251,1.732
8252,1.74
8253,1.743
8254,1.743
8255,1.743
8256,1.74
8257,1.743
8258,1.743
8259,1.743
8260,1.74
8261,1.743
8262,1.74
8263,1.74
8264,1.736
8265,1.736
8266,1.736
8267,1.74
8268,1.743
8269,1.743
8270,1.74
8271,1.736
8272,1.732
8273,1.732
8274,1.736
8275,1.74
8276,1.747
8277,1.751
8278,1.751
8279,1.754
8280,1.758
8281,1.765
8282,1.772
8283,1.772
8284,1.761
8285,1.754
8286,1.747
8287,1.747
8288,1.747
8289,1.747
8290,1.747
8291,1.747
8292,1.743
8293,1.743
8294,1.74
8295,1.74
8296,1.743
8297,1.747
8298,1.751
8299,1.758
8300,1.769
8301,1.776
8302,1.783
8303,1.79
8304,1.79
8305,1.787
8306,1.783
8307,1.776
8308,1.772
8309,1.769
8310,1.769
8311,1.769
8312,1.761
8313,1.761
8314,1.758
8315,1.758
8316,1.758
8317,1.765
8318,1.772
8319,1.779
8320,1.787
8321,1.79
8322,1.798
8323,1.794
8324,1.794
8325,1.794
8326,1.794
8327,1.794
8328,1.798
8329,1.798
8330,1.798
8331,1.798
8332,1.794
8333,1.798
8334,1.794
8335,1.79
8336,1.79
8337,1.79
8338,1.787
8339,1.787
8340,1.787
8341,1.783
8342,1.787
8343,1.79
8344,1.79
8345,1.787
8346,1.787
8347,1.783
8348,1.787
8349,1.79
8350,1.79
8351,1.79
8352,1.79
8353,1.79
8354,1.79
8355,1.79
8356,1.783
8357,1.783
8358,1.779
8359,1.779
8360,1.776
8361,1.772
8362,1.772
8363,1.776
8364,1.779
8365,1.783
8366,1.783
8367,1.79
8368,1.798
8369,1.808
8370,1.819
8371,1.83
8372,1.834
8373,1.841
8374,1.845
8375,1.845
8376,1.848
8377,1.845
8378,1.841
8379,1.837
8380,1.834
8381,1.83
8382,1.826
8383,1.823
8384,1.823
8385,1.823
8386,1.83
8387,1.837
8388,1.841
8389,1.845
8390,1.848
8391,1.848
8392,1.848
8393,1.845
8394,1.845
8395,1.841
8396,1.837
8397,1.834
8398,1.834
8399,1.826
8400,1.819
8401,1.819
8402,1.816
8403,1.816
8404,1.819
8405,1.823
8406,1.826
8407,1.83
8408,1.837
8409,1.841
8410,1.841
8411,1.834
8412,1.834
8413,1.826
8414,1.823
8415,1.823
8416,1.819
8417,1.819
8418,1.816
8419,1.819
8420,1.819
8421,1.819
8422,1.819
8423,1.823
8424,1.826
8425,1.834
8426,1.841
8427,1.845
8428,1.845
8429,1.845
8430,1.848
8431,1.845
8432,1.845
8433,1.841
8434,1.845
8435,1.845
8436,1.845
8437,1.841
8438,1.834
8439,1.823
8440,1.808
8441,1.79
8442,1.765
8443,1.736
8444,1.7
8445,1.657
8446,1.62
8447,1.602
8448,1.62
8449,1.693
8450,1.819
8451,2.015
8452,2.253
8453,2.51
8454,2.781
8455,3.038
8456,3.241
8457,3.36
8458,3.425
8459,3.476
8460,3.519
8461,3.552
8462,3.559
8463,3.53
8464,3.45
8465,3.327
8466,3.157
8467,2.944
8468,2.723
8469,2.525
8470,2.362
8471,2.246
8472,2.166
8473,2.119
8474,2.08
8475,2.04
8476,2.004
8477,1.964
8478,1.928
8479,1.892
8480,1.855
8481,1.826
8482,1.801
8483,1.783
8484,1.772
8485,1.761
8486,1.758
8487,1.751
8488,1.751
8489,1.747
8490,1.74
8491,1.732
8492,1.722
8493,1.714
8494,1.707
8495,1.704
8496,1.696
8497,1.696
8498,1.7
8499,1.704
8500,1.707
8501,1.711
8502,1.711
8503,1.711
8504,1.711
8505,1.711
8506,1.711
8507,1.711
8508,1.711
8509,1.718
8510,1.722
8511,1.729
8512,1.732
8513,1.732
8514,1.732
8515,1.729
8516,1.729
8517,1.732
8518,1.732
8519,1.736
8520,1.736
8521,1.74
8522,1.74
8523,1.743
8524,1.747
8525,1.751
8526,1.754
8527,1.761
8528,1.765
8529,1.761
8530,1.765
8531,1.765
8532,1.769
8533,1.776
8534,1.779
8535,1.783
8536,1.787
8537,1.79
8538,1.79
8539,1.79
8540,1.794
8541,1.794
8542,1.794
8543,1.794
8544,1.798
8545,1.801
8546,1.808
8547,1.819
8548,1.826
8549,1.834
8550,1.841
8551,1.848
8552,1.859
8553,1.866
8554,1.877
8555,1.888
8556,1.902
8557,1.917
8558,1.928
8559,1.935
8560,1.942
8561,1.942
8562,1.949
8563,1.953
8564,1.96
8565,1.964
8566,1.971
8567,1.975
8568,1.975
8569,1.975
8570,1.978
8571,1.989
8572,1.993
8573,2.004
8574,2.015
8575,2.022
8576,2.029
8577,2.033
8578,2.04
8579,2.047
8580,2.054
8581,2.058
8582,2.062
8583,2.058
8584,2.058
8585,2.054
8586,2.051
8587,2.047
8588,2.043
8589,2.036
8590,2.029
8591,2.022
8592,2.015
8593,2.004
8594,1.993
8595,1.986
8596,1.975
8597,1.957
8598,1.942
8599,1.921
8600,1.902
8601,1.884
8602,1.866
8603,1.855
8604,1.837
8605,1.819
8606,1.805
8607,1.79
8608,1.776
8609,1.758
8610,1.743
8611,1.732
8612,1.718
8613,1.704
8614,1.696
8615,1.685
8616,1.682
8617,1.675
8618,1.671
8619,1.667
8620,1.664
8621,1.66
8622,1.66
8623,1.66
8624,1.66
8625,1.66
8626,1.66
8627,1.657
8628,1.653
8629,1.646
8630,1.638
8631,1.631
8632,1.631
8633,1.631
8634,1.635
8635,1.635
8636,1.638
8637,1.638
8638,1.638
8639,1.638
8640,1.642
8641,1.642
8642,1.646
8643,1.646
8644,1.649
8645,1.649
8646,1.649
8647,1.646
8648,1.642
8649,1.638
8650,1.642
8651,1.646
8652,1.646
8653,1.649
8654,1.653
8655,1.66
8656,1.664
8657,1.671
8658,1.675
8659,1.675
8660,1.675
8661,1.675
8662,1.675
8663,1.675
8664,1.678
8665,1.682
8666,1.685
8667,1.693
8668,1.7
8669,1.7
8670,1.7
8671,1.7
8672,1.7
8673,1.7
8674,1.696
8675,1.693
8676,1.693
8677,1.693
8678,1.693
8679,1.7
8680,1.7
8681,1.707
8682,1.711
8683,1.718
8684,1.725
8685,1.732
8686,1.736
8687,1.743
8688,1.747
8689,1.743
8690,1.74
8691,1.729
8692,1.722
8693,1.718
8694,1.714
8695,1.714
8696,1.718
8697,1.725
8698,1.732
8699,1.74
8700,1.747
8701,1.751
8702,1.751
8703,1.754
8704,1.754
8705,1.754
8706,1.754
8707,1.754
8708,1.754
8709,1.758
8710,1.758
8711,1.761
8712,1.761
8713,1.761
8714,1.761
8715,1.765
8716,1.765
8717,1.765
8718,1.769
8719,1.769
8720,1.765
8721,1.769
8722,1.772
8723,1.776
8724,1.779
8725,1.779
8726,1.783
8727,1.783
8728,1.783
8729,1.779
8730,1.779
8731,1.779
8732,1.779
8733,1.787
8734,1.783
8735,1.783
8736,1.783
8737,1.783
8738,1.783
8739,1.783
8740,1.783
8741,1.783
8742,1.787
8743,1.787
8744,1.794
8745,1.794
8746,1.794
8747,1.794
8748,1.79
8749,1.79
8750,1.79
8751,1.798
8752,1.801
8753,1.805
8754,1.808
8755,1.812
8756,1.808
8757,1.808
8758,1.808
8759,1.808
8760,1.812
8761,1.812
8762,1.812
8763,1.812
8764,1.816
8765,1.816
8766,1.816
8767,1.808
8768,1.808
8769,1.805
8770,1.801
8771,1.801
8772,1.801
8773,1.805
8774,1.808
8775,1.812
8776,1.819
8777,1.819
8778,1.823
8779,1.826
8780,1.83
8781,1.83
8782,1.826
8783,1.823
8784,1.819
8785,1.816
8786,1.816
8787,1.819
8788,1.819
8789,1.823
8790,1.826
8791,1.834
8792,1.837
8793,1.837
8794,1.841
8795,1.841
8796,1.841
8797,1.845
8798,1.848
8799,1.841
8800,1.837
8801,1.834
8802,1.834
8803,1.837
8804,1.837
8805,1.841
8806,1.841
8807,1.841
8808,1.841
8809,1.841
8810,1.841
8811,1.841
8812,1.845
8813,1.845
8814,1.845
8815,1.841
8816,1.841
8817,1.837
8818,1.841
8819,1.845
8820,1.845
8821,1.841
8822,1.841
8823,1.841
8824,1.841
8825,1.841
8826,1.845
8827,1.848
8828,1.855
8829,1.859
8830,1.866
8831,1.87
8832,1.87
8833,1.87
8834,1.863
8835,1.859
8836,1.852
8837,1.845
8838,1.845
8839,1.841
8840,1.841
8841,1.845
8842,1.841
8843,1.841
8844,1.841
8845,1.837
8846,1.834
8847,1.834
8848,1.83
8849,1.83
8850,1.826
8851,1.826
8852,1.826
8853,1.826
8854,1.83
8855,1.834
8856,1.837
8857,1.848
8858,1.863
8859,1.877
8860,1.892
8861,1.902
8862,1.91
8863,1.913
8864,1.91
8865,1.906
8866,1.902
8867,1.895
8868,1.892
8869,1.884
8870,1.881
8871,1.874
8872,1.87
8873,1.874
8874,1.881
8875,1.881
8876,1.884
8877,1.892
8878,1.899
8879,1.899
8880,1.902
8881,1.902
8882,1.895
8883,1.888
8884,1.884
8885,1.874
8886,1.866
8887,1.863
8888,1.859
8889,1.859
8890,1.859
8891,1.859
8892,1.863
8893,1.863
8894,1.863
8895,1.866
8896,1.866
8897,1.87
8898,1.87
8899,1.87
8900,1.87
8901,1.866
8902,1.866
8903,1.863
8904,1.863
8905,1.866
8906,1.874
8907,1.874
8908,1.877
8909,1.877
8910,1.877
8911,1.877
8912,1.881
8913,1.881
8914,1.884
8915,1.884
8916,1.884
8917,1.884
8918,1.881
8919,1.881
8920,1.877
8921,1.877
8922,1.881
8923,1.881
8924,1.884
8925,1.884
8926,1.884
8927,1.881
8928,1.87
8929,1.852
8930,1.826
8931,1.794
8932,1.758
8933,1.711
8934,1.675
8935,1.649
8936,1.66
8937,1.714
8938,1.826
8939,2.011
8940,2.242
8941,2.503
8942,2.767
8943,3.016
8944,3.204
8945,3.309
8946,3.356
8947,3.382
8948,3.414
8949,3.454
8950,3.465
8951,3.436
8952,3.367
8953,3.255
8954,3.1
8955,2.915
8956,2.727
8957,2.553
8958,2.409
8959,2.3
8960,2.221
8961,2.163
8962,2.123
8963,2.091
8964,2.062
8965,2.033
8966,2.004
8967,1.971
8968,1.939
8969,1.91
8970,1.884
8971,1.859
8972,1.834
8973,1.812
8974,1.79
8975,1.772
8976,1.761
8977,1.754
8978,1.754
8979,1.761
8980,1.769
8981,1.772
8982,1.772
8983,1.772
8984,1.765
8985,1.761
8986,1.761
8987,1.765
8988,1.765
8989,1.765
8990,1.765
8991,1.761
8992,1.761
8993,1.761
8994,1.761
8995,1.765
8996,1.769
8997,1.772
8998,1.776
8999,1.779
9000,1.783
9001,1.783
9002,1.787
9003,1.787
9004,1.779
9005,1.779
9006,1.779
9007,1.783
9008,1.79
9009,1.798
9010,1.805
9011,1.812
9012,1.812
9013,1.812
9014,1.816
9015,1.816
9016,1.816
9017,1.812
9018,1.808
9019,1.805
9020,1.808
9021,1.808
9022,1.816
9023,1.823
9024,1.83
9025,1.834
9026,1.834
9027,1.837
9028,1.841
9029,1.841
9030,1.845
9031,1.852
9032,1.855
9033,1.859
9034,1.866
9035,1.87
9036,1.877
9037,1.881
9038,1.892
9039,1.899
9040,1.91
9041,1.917
9042,1.928
9043,1.935
9044,1.942
9045,1.946
9046,1.953
9047,1.953
9048,1.957
9049,1.968
9050,1.978
9051,1.989
9052,1.996
9053,2.007
9054,2.018
9055,2.029
9056,2.036
9057,2.047
9058,2.047
9059,2.051
9060,2.051
9061,2.054
9062,2.051
9063,2.051
9064,2.051
9065,2.051
9066,2.058
9067,2.065
9068,2.076
9069,2.08
9070,2.083
9071,2.087
9072,2.091
9073,2.087
9074,2.087
9075,2.083
9076,2.083
9077,2.08
9078,2.08
9079,2.08
9080,2.072
9081,2.065
9082,2.054
9083,2.043
9084,2.033
9085,2.018
9086,2.0
9087,1.978
9088,1.96
9089,1.942
9090,1.928
9091,1.91
9092,1.892
9093,1.874
9094,1.855
9095,1.841
9096,1.826
9097,1.808
9098,1.79
9099,1.776
9100,1.761
9101,1.743
9102,1.729
9103,1.714
9104,1.707
9105,1.7
9106,1.693
9107,1.689
9108,1.689
9109,1.689
9110,1.689
9111,1.685
9112,1.678
9113,1.667
9114,1.66
9115,1.653
9116,1.649
9117,1.649
9118,1.653
9119,1.657
9120,1.66
9121,1.66
9122,1.664
9123,1.664
9124,1.664
9125,1.664
9126,1.664
9127,1.664
9128,1.664
9129,1.66
9130,1.66
9131,1.657
9132,1.657
9133,1.657
9134,1.653
9135,1.657
9136,1.664
9137,1.671
9138,1.682
9139,1.693
9140,1.704
9141,1.711
9142,1.714
9143,1.714
9144,1.711
9145,1.704
9146,1.693
9147,1.689
9148,1.685
9149,1.689
9150,1.693
9151,1.7
9152,1.707
9153,1.714
9154,1.722
9155,1.729
9156,1.729
9157,1.722
9158,1.718
9159,1.711
9160,1.711
9161,1.711
9162,1.711
9163,1.714
9164,1.718
9165,1.725
9166,1.729
9167,1.736
9168,1.74
9169,1.743
9170,1.747
9171,1.754
9172,1.758
9173,1.761
9174,1.769
9175,1.772
9176,1.776
9177,1.772
9178,1.769
9179,1.765
9180,1.761
9181,1.758
9182,1.758
9183,1.758
9184,1.761
9185,1.765
9186,1.772
9187,1.779
9188,1.779
9189,1.779
9190,1.776
9191,1.776
9192,1.779
9193,1.779
9194,1.783
9195,1.787
9196,1.787
9197,1.787
9198,1.794
9199,1.794
9200,1.794
9201,1.794
9202,1.787
9203,1.783
9204,1.779
9205,1.779
9206,1.783
9207,1.783
9208,1.787
9209,1.79
9210,1.794
9211,1.801
9212,1.805
9213,1.808
9214,1.812
9215,1.812
9216,1.816
9217,1.819
9218,1.819
9219,1.826
9220,1.83
9221,1.83
9222,1.83
9223,1.83
9224,1.83
9225,1.834
9226,1.83
9227,1.826
9228,1.823
9229,1.823
9230,1.823
9231,1.819
9232,1.816
9233,1.816
9234,1.812
9235,1.808
9236,1.812
9237,1.812
9238,1.812
9239,1.816
9240,1.819
9241,1.826
9242,1.826
9243,1.826
9244,1.826
9245,1.826
9246,1.823
9247,1.823
9248,1.823
9249,1.823
9250,1.823
9251,1.823
9252,1.826
9253,1.826
9254,1.83
9255,1.834
9256,1.837
9257,1.841
9258,1.845
9259,1.845
9260,1.845
9261,1.845
9262,1.845
9263,1.848
9264,1.848
9265,1.848
9266,1.845
9267,1.837
9268,1.83
9269,1.826
9270,1.826
9271,1.83
9272,1.837
9273,1.841
9274,1.845
9275,1.841
9276,1.845
9277,1.845
9278,1.848
9279,1.852
9280,1.855
9281,1.859
9282,1.863
9283,1.866
9284,1.87
9285,1.866
9286,1.866
9287,1.866
9288,1.863
9289,1.866
9290,1.866
9291,1.87
9292,1.87
9293,1.866
9294,1.863
9295,1.863
9296,1.855
9297,1.852
9298,1.848
9299,1.848
9300,1.848
9301,1.852
9302,1.855
9303,1.866
9304,1.874
9305,1.881
9306,1.884
9307,1.888
9308,1.884
9309,1.881
9310,1.877
9311,1.87
9312,1.866
9313,1.863
9314,1.859
9315,1.859
9316,1.855
9317,1.852
9318,1.848
9319,1.848
9320,1.852
9321,1.855
9322,1.855
9323,1.855
9324,1.859
9325,1.855
9326,1.852
9327,1.848
9328,1.852
9329,1.852
9330,1.859
9331,1.866
9332,1.877
9333,1.884
9334,1.892
9335,1.899
9336,1.902
9337,1.902
9338,1.906
9339,1.906
9340,1.906
9341,1.906
9342,1.91
9343,1.91
9344,1.91
9345,1.913
9346,1.917
9347,1.917
9348,1.917
9349,1.917
9350,1.906
9351,1.906
9352,1.906
9353,1.91
9354,1.91
9355,1.91
9356,1.91
9357,1.91
9358,1.906
9359,1.899
9360,1.892
9361,1.881
9362,1.874
9363,1.87
9364,1.866
9365,1.863
9366,1.866
9367,1.866
9368,1.87
9369,1.87
9370,1.874
9371,1.877
9372,1.877
9373,1.881
9374,1.884
9375,1.888
9376,1.888
9377,1.892
9378,1.895
9379,1.895
9380,1.895
9381,1.899
9382,1.899
9383,1.895
9384,1.895
9385,1.899
9386,1.902
9387,1.906
9388,1.906
9389,1.91
9390,1.91
9391,1.906
9392,1.906
9393,1.902
9394,1.899
9395,1.895
9396,1.895
9397,1.895
9398,1.895
9399,1.895
9400,1.895
9401,1.888
9402,1.877
9403,1.866
9404,1.845
9405,1.819
9406,1.787
9407,1.754
9408,1.714
9409,1.678
9410,1.646
9411,1.642
9412,1.678
9413,1.779
9414,1.96
9415,2.21
9416,2.485
9417,2.749
9418,2.991
9419,3.165
9420,3.27
9421,3.309
9422,3.309
9423,3.313
9424,3.335
9425,3.364
9426,3.349
9427,3.291
9428,3.179
9429,3.031
9430,2.861
9431,2.695
9432,2.553
9433,2.438
9434,2.355
9435,2.293
9436,2.25
9437,2.21
9438,2.177
9439,2.141
9440,2.105
9441,2.069
9442,2.033
9443,1.996
9444,1.957
9445,1.917
9446,1.881
9447,1.848
9448,1.823
9449,1.808
9450,1.798
9451,1.798
9452,1.798
9453,1.798
9454,1.798
9455,1.798
9456,1.801
9457,1.801
9458,1.798
9459,1.794
9460,1.79
9461,1.787
9462,1.787
9463,1.79
9464,1.79
9465,1.794
9466,1.794
9467,1.794
9468,1.794
9469,1.79
9470,1.79
9471,1.787
9472,1.783
9473,1.783
9474,1.779
9475,1.779
9476,1.783
9477,1.787
9478,1.79
9479,1.794
9480,1.798
9481,1.801
9482,1.805
9483,1.808
9484,1.812
9485,1.812
9486,1.812
9487,1.808
9488,1.808
9489,1.808
9490,1.816
9491,1.816
9492,1.823
9493,1.826
9494,1.83
9495,1.837
9496,1.845
9497,1.855
9498,1.863
9499,1.866
9500,1.866
9501,1.866
9502,1.863
9503,1.863
9504,1.863
9505,1.866
9506,1.87
9507,1.874
9508,1.881
9509,1.888
9510,1.892
9511,1.899
9512,1.906
9513,1.906
9514,1.91
9515,1.921
9516,1.928
9517,1.939
9518,1.946
9519,1.957
9520,1.964
9521,1.975
9522,1.986
9523,1.993
9524,2.0
9525,2.007
9526,2.015
9527,2.025
9528,2.036
9529,2.047
9530,2.054
9531,2.062
9532,2.065
9533,2.072
9534,2.076
9535,2.08
9536,2.087
9537,2.094
9538,2.098
9539,2.101
9540,2.105
9541,2.105
9542,2.109
9543,2.112
9544,2.116
9545,2.112
9546,2.116
9547,2.116
9548,2.116
9549,2.119
9550,2.123
9551,2.123
9552,2.116
9553,2.109
9554,2.098
9555,2.091
9556,2.076
9557,2.062
9558,2.047
9559,2.033
9560,2.015
9561,2.0
9562,1.982
9563,1.964
9564,1.946
9565,1.931
9566,1.913
9567,1.895
9568,1.874
9569,1.852
9570,1.83
9571,1.808
9572,1.787
9573,1.772
9574,1.758
9575,1.743
9576,1.732
9577,1.714
9578,1.7
9579,1.682
9580,1.671
9581,1.657
9582,1.649
9583,1.642
9584,1.638
9585,1.635
9586,1.628
9587,1.628
9588,1.62
9589,1.617
9590,1.617
9591,1.62
9592,1.624
9593,1.624
9594,1.628
9595,1.628
9596,1.624
9597,1.62
9598,1.62
9599,1.613
9600,1.609
9601,1.609
9602,1.609
9603,1.609
9604,1.609
9605,1.609
9606,1.613
9607,1.62
9608,1.628
9609,1.635
9610,1.642
9611,1.646
9612,1.649
9613,1.649
9614,1.646
9615,1.642
9616,1.638
9617,1.638
9618,1.642
9619,1.649
9620,1.657
9621,1.66
9622,1.664
9623,1.66
9624,1.66
9625,1.66
9626,1.66
9627,1.664
9628,1.667
9629,1.671
9630,1.675
9631,1.682
9632,1.685
9633,1.685
9634,1.689
9635,1.689
9636,1.689
9637,1.693
9638,1.693
9639,1.689
9640,1.689
9641,1.689
9642,1.689
9643,1.696
9644,1.7
9645,1.704
9646,1.707
9647,1.711
9648,1.718
9649,1.722
9650,1.722
9651,1.725
9652,1.725
9653,1.722
9654,1.714
9655,1.711
9656,1.707
9657,1.707
9658,1.707
9659,1.714
9660,1.722
9661,1.725
9662,1.729
9663,1.732
9664,1.732
9665,1.732
9666,1.729
9667,1.729
9668,1.725
9669,1.729
9670,1.729
9671,1.732
9672,1.74
9673,1.743
9674,1.747
9675,1.743
9676,1.747
9677,1.747
9678,1.751
9679,1.751
9680,1.751
9681,1.751
9682,1.751
9683,1.751
9684,1.758
9685,1.754
9686,1.754
9687,1.751
9688,1.751
9689,1.751
9690,1.754
9691,1.758
9692,1.761
9693,1.765
9694,1.769
9695,1.772
9696,1.769
9697,1.769
9698,1.765
9699,1.761
9700,1.761
9701,1.761
9702,1.769
9703,1.772
9704,1.779
9705,1.779
9706,1.783
9707,1.783
9708,1.779
9709,1.772
9710,1.769
9711,1.765
9712,1.765
9713,1.765
9714,1.769
9715,1.769
9716,1.772
9717,1.776
9718,1.776
9719,1.776
9720,1.776
9721,1.776
9722,1.776
9723,1.776
9724,1.779
9725,1.779
9726,1.783
9727,1.787
9728,1.79
9729,1.79
9730,1.794
9731,1.79
9732,1.79
9733,1.787
9734,1.787
9735,1.787
9736,1.787
9737,1.787
9738,1.787
9739,1.79
9740,1.79
9741,1.79
9742,1.79
9743,1.79
9744,1.79
9745,1.79
9746,1.787
9747,1.787
9748,1.783
9749,1.787
9750,1.787
9751,1.787
9752,1.79
9753,1.79
9754,1.79
9755,1.79
9756,1.79
9757,1.79
9758,1.79
9759,1.794
9760,1.801
9761,1.805
9762,1.808
9763,1.808
9764,1.808
9765,1.808
9766,1.805
9767,1.805
9768,1.801
9769,1.801
9770,1.798
9771,1.798
9772,1.79
9773,1.79
9774,1.787
9775,1.787
9776,1.79
9777,1.794
9778,1.798
9779,1.805
9780,1.808
9781,1.812
9782,1.816
9783,1.812
9784,1.812
9785,1.808
9786,1.805
9787,1.801
9788,1.798
9789,1.798
9790,1.794
9791,1.794
9792,1.794
9793,1.794
9794,1.794
9795,1.794
9796,1.798
9797,1.801
9798,1.801
9799,1.801
9800,1.801
9801,1.801
9802,1.798
9803,1.794
9804,1.79
9805,1.787
9806,1.787
9807,1.794
9808,1.798
9809,1.808
9810,1.823
9811,1.834
9812,1.845
9813,1.848
9814,1.855
9815,1.855
9816,1.852
9817,1.855
9818,1.859
9819,1.859
9820,1.863
9821,1.863
9822,1.859
9823,1.859
9824,1.852
9825,1.852
9826,1.845
9827,1.841
9828,1.837
9829,1.837
9830,1.837
9831,1.841
9832,1.845
9833,1.841
9834,1.837
9835,1.83
9836,1.826
9837,1.819
9838,1.812
9839,1.805
9840,1.805
9841,1.805
9842,1.805
9843,1.805
9844,1.808
9845,1.808
9846,1.808
9847,1.808
9848,1.805
9849,1.801
9850,1.805
9851,1.808
9852,1.812
9853,1.819
9854,1.823
9855,1.826
9856,1.83
9857,1.834
9858,1.834
9859,1.83
9860,1.83
9861,1.826
9862,1.823
9863,1.823
9864,1.823
9865,1.823
9866,1.823
9867,1.826
9868,1.83
9869,1.83
9870,1.834
9871,1.837
9872,1.837
9873,1.837
9874,1.837
9875,1.841
9876,1.841
9877,1.841
9878,1.837
9879,1.83
9880,1.812
9881,1.794
9882,1.769
9883,1.736
9884,1.7
9885,1.66
9886,1.617
9887,1.588
9888,1.581
9889,1.617
9890,1.704
9891,1.855
9892,2.076
9893,2.333
9894,2.608
9895,2.883
9896,3.132
9897,3.309
9898,3.403
9899,3.45
9900,3.49
9901,3.523
9902,3.548
9903,3.544
9904,3.497
9905,3.4
9906,3.252
9907,3.06
9908,2.843
9909,2.633
9910,2.452
9911,2.318
9912,2.224
9913,2.156
9914,2.109
9915,2.076
9916,2.047
9917,2.015
9918,1.978
9919,1.939
9920,1.902
9921,1.866
9922,1.834
9923,1.801
9924,1.776
9925,1.754
9926,1.743
9927,1.732
9928,1.729
9929,1.725
9930,1.718
9931,1.711
9932,1.704
9933,1.7
9934,1.696
9935,1.696
9936,1.693
9937,1.696
9938,1.7
9939,1.704
9940,1.707
9941,1.707
9942,1.707
9943,1.704
9944,1.707
9945,1.704
9946,1.707
9947,1.707
9948,1.704
9949,1.707
9950,1.707
9951,1.711
9952,1.711
9953,1.714
9954,1.714
9955,1.718
9956,1.722
9957,1.722
9958,1.725
9959,1.722
9960,1.722
9961,1.722
9962,1.725
9963,1.725
9964,1.732
9965,1.736
9966,1.743
9967,1.743
9968,1.743
9969,1.743
9970,1.747
9971,1.747
9972,1.751
9973,1.754
9974,1.761
9975,1.769
9976,1.776
9977,1.776
9978,1.779
9979,1.783
9980,1.783
9981,1.783
9982,1.783
9983,1.783
9984,1.787
9985,1.79
9986,1.794
9987,1.801
9988,1.801
9989,1.808
9990,1.812
9991,1.819
9992,1.826
9993,1.837
9994,1.848
9995,1.855
9996,1.866
9997,1.874
9998,1.888
9999,1.892
10000,1.899
10001,1.906
10002,1.917
10003,1.928
10004,1.935
10005,1.946
10006,1.953
10007,1.957
10008,1.96
10009,1.964
10010,1.968
10011,1.971
10012,1.975
10013,1.982
10014,1.986
10015,1.993
10016,2.0
10017,2.007
10018,2.015
10019,2.022
10020,2.033
10021,2.036
10022,2.043
10023,2.047
10024,2.047
10025,2.043
10026,2.04
10027,2.036
10028,2.036
10029,2.033
10030,2.033
10031,2.025
10032,2.011
10033,2.0
10034,1.986
10035,1.975
10036,1.96
10037,1.946
10038,1.939
10039,1.928
10040,1.917
10041,1.906
10042,1.888
10043,1.87
10044,1.852
10045,1.834
10046,1.816
10047,1.798
10048,1.779
10049,1.765
10050,1.751
10051,1.736
10052,1.725
10053,1.707
10054,1.689
10055,1.675
10056,1.657
10057,1.642
10058,1.631
10059,1.624
10060,1.62
10061,1.62
10062,1.624
10063,1.628
10064,1.628
10065,1.624
10066,1.624
10067,1.62
10068,1.617
10069,1.617
10070,1.617
10071,1.613
10072,1.609
10073,1.602
10074,1.602
10075,1.595
10076,1.595
10077,1.599
10078,1.602
10079,1.606
10080,1.609
10081,1.613
10082,1.62
10083,1.624
10084,1.631
10085,1.631
10086,1.631
10087,1.628
10088,1.624
10089,1.628
10090,1.628
10091,1.628
10092,1.631
10093,1.635
10094,1.638
10095,1.642
10096,1.642
10097,1.642
10098,1.642
10099,1.638
10100,1.638
10101,1.638
10102,1.638
10103,1.642
10104,1.646
10105,1.653
10106,1.664
10107,1.667
10108,1.667
10109,1.671
10110,1.671
10111,1.667
10112,1.671
10113,1.675
10114,1.678
10115,1.682
10116,1.689
10117,1.696
10118,1.696
10119,1.7
10120,1.7
10121,1.7
10122,1.7
10123,1.7
10124,1.7
10125,1.7
10126,1.704
10127,1.704
10128,1.707
10129,1.711
10130,1.714
10131,1.718
10132,1.718
10133,1.718
10134,1.718
10135,1.722
10136,1.722
10137,1.725
10138,1.729
10139,1.732
10140,1.732
10141,1.732
10142,1.732
10143,1.732
10144,1.732
10145,1.729
10146,1.729
10147,1.725
10148,1.729
10149,1.736
10150,1.743
10151,1.743
10152,1.743
10153,1.74
10154,1.74
10155,1.74
10156,1.74
10157,1.743
10158,1.743
10159,1.743
10160,1.743
10161,1.74
10162,1.736
10163,1.736
10164,1.74
10165,1.743
10166,1.751
10167,1.758
10168,1.761
10169,1.765
10170,1.765
10171,1.765
10172,1.761
10173,1.761
10174,1.761
10175,1.761
10176,1.761
10177,1.761
10178,1.761
10179,1.761
10180,1.765
10181,1.769
10182,1.772
10183,1.776
10184,1.779
10185,1.783
10186,1.787
10187,1.787
10188,1.783
10189,1.783
10190,1.779
10191,1.779
10192,1.779
10193,1.783
10194,1.779
10195,1.779
10196,1.776
10197,1.776
10198,1.772
10199,1.772
10200,1.772
10201,1.776
10202,1.779
10203,1.783
10204,1.787
10205,1.787
10206,1.787
10207,1.79
10208,1.794
10209,1.798
10210,1.801
10211,1.801
10212,1.805
10213,1.805
10214,1.812
10215,1.812
10216,1.812
10217,1.805
10218,1.801
10219,1.798
10220,1.794
10221,1.794
10222,1.798
10223,1.801
10224,1.805
10225,1.808
10226,1.808
10227,1.808
10228,1.808
10229,1.808
10230,1.808
10231,1.808
10232,1.808
10233,1.808
10234,1.808
10235,1.808
10236,1.812
10237,1.812
10238,1.812
10239,1.816
10240,1.819
10241,1.819
10242,1.823
10243,1.823
10244,1.823
10245,1.823
10246,1.823
10247,1.823
10248,1.819
10249,1.819
10250,1.819
10251,1.819
10252,1.819
10253,1.819
10254,1.823
10255,1.823
10256,1.826
10257,1.826
10258,1.826
10259,1.823
10260,1.823
10261,1.823
10262,1.826
10263,1.83
10264,1.83
10265,1.83
10266,1.834
10267,1.834
10268,1.841
10269,1.845
10270,1.848
10271,1.848
10272,1.848
10273,1.845
10274,1.841
10275,1.834
10276,1.826
10277,1.826
10278,1.823
10279,1.823
10280,1.819
10281,1.816
10282,1.816
10283,1.819
10284,1.823
10285,1.83
10286,1.837
10287,1.845
10288,1.845
10289,1.845
10290,1.845
10291,1.841
10292,1.837
10293,1.834
10294,1.834
10295,1.834
10296,1.83
10297,1.83
10298,1.823
10299,1.823
10300,1.823
10301,1.826
10302,1.823
10303,1.823
10304,1.819
10305,1.816
10306,1.816
10307,1.816
10308,1.823
10309,1.826
10310,1.834
10311,1.845
10312,1.859
10313,1.87
10314,1.881
10315,1.888
10316,1.892
10317,1.892
10318,1.892
10319,1.892
10320,1.884
10321,1.881
10322,1.877
10323,1.87
10324,1.863
10325,1.863
10326,1.866
10327,1.87
10328,1.874
10329,1.877
10330,1.877
10331,1.877
10332,1.877
10333,1.877
10334,1.87
10335,1.866
10336,1.866
10337,1.863
10338,1.859
10339,1.855
10340,1.852
10341,1.848
10342,1.848
10343,1.845
10344,1.848
10345,1.848
10346,1.848
10347,1.852
10348,1.852
10349,1.852
10350,1.852
10351,1.852
10352,1.852
10353,1.848
10354,1.845
10355,1.845
10356,1.841
10357,1.841
10358,1.841
10359,1.845
10360,1.852
10361,1.859
10362,1.863
10363,1.87
10364,1.874
10365,1.87
10366,1.866
10367,1.855
10368,1.852
10369,1.852
10370,1.848
10371,1.845
10372,1.848
10373,1.852
10374,1.855
10375,1.855
10376,1.863
10377,1.859
10378,1.859
10379,1.855
10380,1.845
10381,1.834
10382,1.812
10383,1.783
10384,1.747
10385,1.707
10386,1.664
10387,1.635
10388,1.628
10389,1.66
10390,1.74
10391,1.888
10392,2.098
10393,2.347
10394,2.611
10395,2.872
10396,3.107
10397,3.266
10398,3.346
10399,3.378
10400,3.403
10401,3.432
10402,3.458
10403,3.454
10404,3.407
10405,3.32
10406,3.19
10407,3.02
10408,2.825
10409,2.637
10410,2.467
10411,2.336
10412,2.239
10413,2.174
10414,2.13
10415,2.098
10416,2.065
10417,2.033
10418,2.0
10419,1.964
10420,1.931
10421,1.892
10422,1.859
10423,1.83
10424,1.801
10425,1.779
10426,1.761
10427,1.751
10428,1.743
10429,1.736
10430,1.736
10431,1.732
10432,1.729
10433,1.729
10434,1.732
10435,1.732
10436,1.732
10437,1.736
10438,1.736
10439,1.732
10440,1.729
10441,1.725
10442,1.714
10443,1.711
10444,1.711
10445,1.711
10446,1.714
10447,1.711
10448,1.707
10449,1.707
10450,1.704
10451,1.704
10452,1.711
10453,1.714
10454,1.714
10455,1.718
10456,1.722
10457,1.722
10458,1.725
10459,1.725
10460,1.729
10461,1.732
10462,1.736
10463,1.743
10464,1.743
10465,1.747
10466,1.754
10467,1.758
10468,1.758
10469,1.761
10470,1.765
10471,1.769
10472,1.776
10473,1.779
10474,1.783
10475,1.787
10476,1.79
10477,1.794
10478,1.79
10479,1.79
10480,1.79
10481,1.79
10482,1.794
10483,1.798
10484,1.801
10485,1.805
10486,1.808
10487,1.812
10488,1.816
10489,1.819
10490,1.826
10491,1.834
10492,1.845
10493,1.855
10494,1.863
10495,1.877
10496,1.884
10497,1.892
10498,1.899
10499,1.906
10500,1.913
10501,1.921
10502,1.928
10503,1.931
10504,1.935
10505,1.942
10506,1.953
10507,1.957
10508,1.968
10509,1.975
10510,1.982
10511,1.989
10512,1.993
10513,1.996
10514,2.0
10515,2.004
10516,2.007
10517,2.015
10518,2.018
10519,2.022
10520,2.029
10521,2.033
10522,2.036
10523,2.04
10524,2.047
10525,2.051
10526,2.058
10527,2.062
10528,2.065
10529,2.054
10530,2.047
10531,2.04
10532,2.029
10533,2.015
10534,2.0
10535,1.986
10536,1.971
10537,1.957
10538,1.942
10539,1.931
10540,1.913
10541,1.899
10542,1.881
10543,1.866
10544,1.852
10545,1.837
10546,1.823
10547,1.808
10548,1.794
10549,1.779
10550,1.765
10551,1.747
10552,1.732
10553,1.714
10554,1.696
10555,1.682
10556,1.671
10557,1.657
10558,1.646
10559,1.635
10560,1.631
10561,1.62
10562,1.617
10563,1.613
10564,1.609
10565,1.606
10566,1.606
10567,1.606
10568,1.606
10569,1.606
10570,1.609
10571,1.609
10572,1.606
10573,1.606
10574,1.606
10575,1.602
10576,1.602
10577,1.602
10578,1.602
10579,1.606
10580,1.602
10581,1.606
10582,1.609
10583,1.609
10584,1.613
10585,1.613
10586,1.617
10587,1.624
10588,1.628
10589,1.631
10590,1.631
10591,1.628
10592,1.624
10593,1.62
10594,1.62
10595,1.617
10596,1.617
10597,1.617
10598,1.62
10599,1.628
10600,1.631
10601,1.638
10602,1.642
10603,1.649
10604,1.653
10605,1.653
10606,1.649
10607,1.646
10608,1.642
10609,1.642
10610,1.638
10611,1.642
10612,1.642
10613,1.646
10614,1.653
10615,1.653
10616,1.657
10617,1.66
10618,1.664
10619,1.667
10620,1.671
10621,1.675
10622,1.678
10623,1.682
10624,1.682
10625,1.682
10626,1.682
10627,1.678
10628,1.675
10629,1.675
10630,1.678
10631,1.682
10632,1.685
10633,1.689
10634,1.693
10635,1.696
10636,1.7
10637,1.696
10638,1.696
10639,1.7
10640,1.7
10641,1.7
10642,1.7
10643,1.7
10644,1.7
10645,1.704
10646,1.707
10647,1.714
10648,1.718
10649,1.722
10650,1.722
10651,1.725
10652,1.729
10653,1.732
10654,1.732
10655,1.729
10656,1.722
10657,1.718
10658,1.714
10659,1.711
10660,1.711
10661,1.711
10662,1.711
10663,1.711
10664,1.714
10665,1.714
10666,1.718
10667,1.718
10668,1.722
10669,1.718
10670,1.718
10671,1.718
10672,1.718
10673,1.718
10674,1.718
10675,1.722
10676,1.722
10677,1.722
10678,1.722
10679,1.725
10680,1.722
10681,1.725
10682,1.725
10683,1.732
10684,1.736
10685,1.74
10686,1.747
10687,1.751
10688,1.751
10689,1.743
10690,1.743
10691,1.74
10692,1.74
10693,1.74
10694,1.74
10695,1.74
10696,1.74
10697,1.743
10698,1.743
10699,1.747
10700,1.747
10701,1.747
10702,1.743
10703,1.74
10704,1.74
10705,1.736
10706,1.736
10707,1.736
10708,1.74
10709,1.743
10710,1.747
10711,1.751
10712,1.758
10713,1.754
10714,1.751
10715,1.751
10716,1.747
10717,1.747
10718,1.751
10719,1.751
10720,1.751
10721,1.751
10722,1.754
10723,1.754
10724,1.751
10725,1.747
10726,1.747
10727,1.747
10728,1.751
10729,1.751
10730,1.754
10731,1.754
10732,1.758
10733,1.761
10734,1.761
10735,1.761
10736,1.758
10737,1.758
10738,1.758
10739,1.761
10740,1.765
10741,1.765
10742,1.765
10743,1.765
10744,1.765
10745,1.758
10746,1.751
10747,1.747
10748,1.743
10749,1.743
10750,1.743
10751,1.751
10752,1.754
10753,1.758
10754,1.761
10755,1.769
10756,1.765
10757,1.761
10758,1.761
10759,1.758
10760,1.758
10761,1.761
10762,1.765
10763,1.765
10764,1.769
10765,1.769
10766,1.772
10767,1.772
10768,1.772
10769,1.776
10770,1.779
10771,1.783
10772,1.787
10773,1.787
10774,1.787
10775,1.783
10776,1.779
10777,1.776
10778,1.772
10779,1.769
10780,1.772
10781,1.776
10782,1.783
10783,1.79
10784,1.798
10785,1.798
10786,1.798
10787,1.798
10788,1.79
10789,1.787
10790,1.787
10791,1.787
10792,1.79
10793,1.79
10794,1.794
10795,1.794
10796,1.794
10797,1.794
10798,1.794
10799,1.79
10800,1.794
10801,1.794
10802,1.794
10803,1.794
10804,1.798
10805,1.801
10806,1.805
10807,1.812
10808,1.812
10809,1.808
10810,1.798
10811,1.794
10812,1.79
10813,1.787
10814,1.79
10815,1.79
10816,1.79
10817,1.787
10818,1.783
10819,1.783
10820,1.787
10821,1.787
10822,1.794
10823,1.805
10824,1.819
10825,1.83
10826,1.837
10827,1.845
10828,1.852
10829,1.855
10830,1.855
10831,1.859
10832,1.855
10833,1.852
10834,1.845
10835,1.841
10836,1.837
10837,1.834
10838,1.834
10839,1.834
10840,1.837
10841,1.845
10842,1.852
10843,1.852
10844,1.855
10845,1.852
10846,1.852
10847,1.848
10848,1.848
10849,1.845
10850,1.841
10851,1.834
10852,1.83
10853,1.819
10854,1.816
10855,1.816
10856,1.816
10857,1.819
10858,1.819
10859,1.819
10860,1.816
10861,1.816
10862,1.816
10863,1.823
10864,1.823
10865,1.83
10866,1.834
10867,1.841
10868,1.848
10869,1.852
10870,1.855
10871,1.852
10872,1.848
10873,1.848
10874,1.848
10875,1.845
10876,1.848
10877,1.852
10878,1.852
10879,1.855
10880,1.855
10881,1.852
10882,1.852
10883,1.852
10884,1.845
10885,1.841
10886,1.837
10887,1.841
10888,1.841
10889,1.845
10890,1.848
10891,1.852
10892,1.855
10893,1.855
10894,1.852
10895,1.845
10896,1.826
10897,1.801
10898,1.772
10899,1.736
10900,1.696
10901,1.667
10902,1.664
10903,1.693
10904,1.776
10905,1.928
10906,2.148
10907,2.394
10908,2.648
10909,2.886
10910,3.082
10911,3.204
10912,3.266
10913,3.288
10914,3.317
10915,3.356
10916,3.4
10917,3.407
10918,3.356
10919,3.262
10920,3.125
10921,2.955
10922,2.778
10923,2.615
10924,2.478
10925,2.373
10926,2.3
10927,2.242
10928,2.199
10929,2.156
10930,2.116
10931,2.08
10932,2.04
10933,2.004
10934,1.968
10935,1.931
10936,1.899
10937,1.87
10938,1.848
10939,1.834
10940,1.819
10941,1.808
10942,1.801
10943,1.798
10944,1.794
10945,1.794
10946,1.794
10947,1.794
10948,1.794
10949,1.79
10950,1.79
10951,1.787
10952,1.783
10953,1.783
10954,1.783
10955,1.787
10956,1.787
10957,1.787
10958,1.787
10959,1.79
10960,1.794
10961,1.798
10962,1.798
10963,1.798
10964,1.798
10965,1.794
10966,1.794
10967,1.798
10968,1.805
10969,1.808
10970,1.816
10971,1.826
10972,1.83
10973,1.834
10974,1.837
10975,1.834
10976,1.83
10977,1.823
10978,1.819
10979,1.819
10980,1.823
10981,1.826
10982,1.837
10983,1.841
10984,1.845
10985,1.852
10986,1.855
10987,1.859
10988,1.866
10989,1.87
10990,1.874
10991,1.877
10992,1.881
10993,1.888
10994,1.892
10995,1.892
10996,1.892
10997,1.895
10998,1.899
10999,1.906
11000,1.91
11001,1.917
11002,1.924
11003,1.928
11004,1.939
11005,1.942
11006,1.949
11007,1.957
11008,1.964
11009,1.975
11010,1.986
11011,1.996
11012,2.007
11013,2.018
11014,2.029
11015,2.033
11016,2.029
11017,2.033
11018,2.033
11019,2.04
11020,2.047
11021,2.054
11022,2.065
11023,2.076
11024,2.083
