,0
0,1.798
1,1.801
2,1.816
3,1.812
4,1.823
5,1.805
6,1.758
7,1.722
8,1.693
9,1.711
10,1.725
11,1.743
12,1.765
13,1.787
14,1.823
15,1.841
16,1.855
17,1.848
18,1.83
19,1.826
20,1.834
21,1.837
22,1.845
23,1.866
24,1.888
25,1.895
26,1.902
27,1.921
28,1.902
29,1.852
30,1.834
31,1.845
32,1.87
33,1.884
34,1.87
35,1.852
36,1.852
37,1.866
38,1.892
39,1.902
40,1.888
41,1.866
42,1.761
43,1.646
44,1.664
45,1.772
46,1.884
47,1.921
48,1.921
49,1.884
50,1.852
51,1.845
52,1.859
53,1.805
54,1.736
55,1.678
56,1.631
57,1.613
58,1.62
59,1.696
60,1.845
61,1.949
62,1.899
63,1.841
64,1.812
65,1.848
66,1.892
67,1.895
68,1.841
69,1.823
70,1.823
71,1.794
72,1.779
73,1.794
74,1.805
75,1.779
76,1.751
77,1.725
78,1.765
79,1.826
80,1.852
81,1.866
82,1.928
83,1.971
84,1.993
85,2.022
86,2.043
87,2.007
88,1.968
89,1.957
90,1.939
91,1.855
92,1.769
93,1.725
94,1.693
95,1.682
96,1.7
97,1.736
98,1.779
99,1.83
100,1.83
101,1.794
102,1.743
103,1.776
104,1.787
105,1.812
106,1.834
107,1.83
108,1.845
109,1.83
110,1.816
111,1.743
112,1.704
113,1.714
114,1.761
115,1.805
116,1.826
117,1.826
118,1.848
119,1.884
120,1.892
121,1.884
122,1.895
123,1.906
124,1.917
125,1.895
126,1.881
127,1.845
128,1.812
129,1.801
130,1.776
131,1.769
132,1.758
133,1.761
134,1.776
135,1.769
136,1.787
137,1.783
138,1.812
139,1.866
140,1.906
141,1.895
142,1.881
143,1.823
144,1.776
145,1.761
146,1.736
147,1.779
148,1.805
149,1.837
150,1.83
151,1.845
152,1.87
153,1.87
154,1.895
155,1.935
156,1.924
157,1.931
158,1.921
159,1.881
160,1.794
161,1.79
162,1.779
163,1.758
164,1.787
165,1.794
166,1.816
167,1.816
168,1.859
169,1.855
170,1.823
171,1.808
172,1.812
173,1.837
174,1.855
175,1.892
176,1.902
177,1.863
178,1.881
179,2.007
180,2.166
181,2.232
182,2.025
183,1.852
184,1.769
185,1.591
186,1.501
187,1.595
188,1.324
189,1.241
190,1.327
191,1.599
192,1.754
193,1.801
194,1.884
195,1.895
196,1.917
197,1.87
198,1.917
199,1.913
200,1.982
201,1.928
202,1.884
203,1.852
204,1.826
205,1.823
206,1.816
207,1.826
208,1.761
209,1.798
210,1.859
211,2.004
212,1.982
213,1.975
214,1.83
215,1.783
216,1.653
217,1.635
218,1.751
219,1.855
220,1.953
221,2.072
222,1.964
223,1.808
224,1.707
225,1.718
226,1.7
227,1.834
228,1.859
229,1.978
230,2.043
231,2.101
232,2.152
233,2.163
234,2.152
235,2.004
236,1.906
237,1.74
238,1.675
239,1.624
240,1.581
241,1.559
242,1.573
243,1.602
244,1.642
245,1.693
246,1.747
247,1.798
248,1.779
249,1.761
250,1.751
251,1.776
252,1.783
253,1.769
254,1.826
255,1.87
256,1.917
257,1.888
258,1.816
259,1.736
260,1.707
261,1.66
262,1.62
263,1.751
264,1.91
265,1.913
266,1.874
267,2.109
268,2.094
269,1.957
270,1.989
271,2.033
272,2.011
273,1.96
274,1.899
275,1.83
276,1.816
277,1.834
278,1.826
279,1.892
280,1.928
281,1.924
282,1.899
283,1.83
284,1.693
285,1.566
286,1.454
287,1.414
288,1.425
289,1.494
290,1.606
291,1.624
292,1.765
293,1.884
294,1.989
295,2.022
296,2.094
297,2.195
298,2.195
299,2.083
300,2.004
301,1.899
302,1.79
303,1.769
304,1.751
305,1.707
306,1.837
307,1.863
308,1.83
309,1.906
310,1.841
311,1.888
312,1.747
313,1.798
314,1.863
315,1.837
316,1.826
317,1.801
318,1.725
319,1.696
320,1.74
321,1.765
322,1.696
323,1.696
324,1.79
325,1.808
326,1.769
327,1.751
328,1.772
329,1.859
330,1.87
331,1.812
332,1.823
333,1.812
334,1.805
335,1.823
336,1.859
337,1.924
338,1.968
339,1.993
340,1.996
341,1.982
342,1.982
343,1.899
344,1.783
345,1.638
346,1.613
347,1.642
348,1.787
349,2.018
350,2.163
351,2.206
352,2.185
353,2.152
354,1.996
355,1.79
356,1.628
357,1.487
358,1.429
359,1.548
360,1.566
361,1.602
362,1.736
363,1.812
364,1.874
365,1.769
366,1.751
367,1.761
368,1.83
369,1.866
370,1.834
371,1.808
372,1.754
373,1.913
374,2.0
375,1.859
376,1.855
377,1.852
378,1.939
379,1.794
380,1.573
381,1.581
382,1.653
383,1.707
384,1.743
385,1.978
386,2.156
387,2.304
388,2.344
389,2.228
390,2.069
391,1.946
392,1.801
393,1.631
394,1.7
395,1.642
396,1.49
397,1.472
398,1.476
399,1.497
400,1.476
401,1.392
402,1.57
403,1.758
404,1.725
405,1.624
406,1.537
407,1.642
408,1.678
409,1.826
410,2.015
411,2.116
412,2.21
413,2.257
414,2.203
415,2.166
416,2.185
417,2.224
418,2.206
419,2.145
420,2.058
421,2.094
422,2.054
423,1.993
424,1.989
425,1.935
426,1.877
427,1.881
428,1.816
429,1.808
430,1.736
431,1.675
432,1.635
433,1.653
434,1.635
435,1.638
436,1.664
437,1.653
438,1.613
439,1.646
440,1.747
441,1.765
442,1.725
443,1.667
444,1.657
445,1.675
446,1.754
447,1.798
448,1.819
449,1.837
450,1.808
451,1.798
452,1.776
453,1.772
454,1.743
455,1.751
456,1.758
457,1.779
458,1.787
459,1.801
460,1.859
461,1.877
462,1.863
463,1.794
464,1.714
465,1.678
466,1.725
467,1.776
468,1.855
469,1.834
470,1.747
471,1.779
472,1.776
473,1.877
474,2.315
475,1.884
476,1.761
477,1.693
478,1.642
479,1.653
480,1.671
481,1.772
482,1.996
483,2.025
484,2.043
485,2.213
486,2.362
487,2.308
488,2.232
489,2.148
490,2.062
491,2.007
492,2.025
493,2.022
494,1.968
495,1.928
496,1.855
497,1.787
498,1.751
499,1.696
500,1.631
501,1.581
502,1.588
503,1.581
504,1.53
505,1.534
506,1.617
507,1.628
508,1.675
509,1.704
510,1.675
511,1.689
512,1.704
513,1.682
514,1.671
515,1.696
516,1.732
517,1.761
518,1.769
519,1.769
520,1.772
521,1.754
522,1.761
523,1.783
524,1.779
525,1.805
526,1.87
527,1.939
528,1.989
529,1.982
530,1.957
531,1.935
532,1.931
533,1.924
534,1.939
535,1.968
536,1.949
537,1.924
538,1.917
539,1.917
540,1.917
541,1.913
542,1.863
543,1.845
544,1.837
545,1.834
546,1.837
547,1.845
548,1.866
549,1.892
550,1.917
551,1.845
552,1.794
553,1.805
554,1.834
555,1.863
556,1.874
557,1.83
558,1.834
559,1.841
560,1.805
561,1.798
562,1.787
563,1.783
564,1.79
565,1.805
566,1.805
567,1.826
568,1.852
569,1.866
570,1.892
571,1.863
572,1.772
573,1.696
574,1.675
575,1.7
576,1.725
577,1.754
578,1.87
579,1.765
580,1.602
581,1.664
582,1.801
583,1.823
584,1.798
585,1.819
586,1.834
587,1.823
588,1.812
589,1.83
590,1.798
591,1.841
592,1.863
593,1.87
594,1.823
595,1.874
596,1.921
597,1.931
598,1.888
599,1.816
600,1.834
601,1.823
602,1.83
603,1.798
604,1.772
605,1.747
606,1.783
607,1.747
608,1.801
609,1.863
610,1.845
611,1.819
612,1.776
613,1.769
614,1.787
615,1.761
616,1.736
617,1.787
618,1.877
619,1.863
620,1.892
621,1.935
622,1.978
623,1.993
624,1.921
625,1.921
626,1.982
627,1.989
628,1.924
629,1.895
630,1.906
631,1.83
632,1.79
633,1.732
634,1.685
635,1.7
636,1.747
637,1.729
638,1.74
639,1.816
640,1.845
641,1.902
642,1.957
643,1.957
644,1.899
645,1.855
646,1.79
647,1.808
648,1.845
649,1.725
650,1.591
651,1.653
652,1.826
653,2.069
654,2.098
655,2.181
656,2.232
657,2.199
658,1.978
659,1.729
660,1.555
661,1.537
662,1.483
663,1.512
664,1.534
665,1.599
666,1.671
667,1.682
668,1.653
669,1.779
670,1.902
671,1.993
672,1.939
673,1.816
674,1.758
675,1.765
676,1.761
677,1.675
678,1.62
679,1.66
680,1.667
681,1.635
682,1.646
683,1.7
684,1.729
685,1.718
686,1.722
687,1.892
688,1.942
689,1.964
690,2.123
691,2.199
692,2.235
693,2.195
694,2.152
695,2.156
696,2.145
697,2.091
698,2.022
699,1.978
700,1.931
701,1.855
702,1.772
703,1.772
704,1.816
705,1.772
706,1.722
707,1.826
708,1.852
709,1.693
710,1.714
711,1.696
712,1.751
713,1.657
714,1.552
715,1.725
716,1.685
717,1.595
718,1.617
719,1.671
720,1.725
721,1.874
722,1.877
723,1.776
724,1.776
725,1.79
726,1.74
727,1.729
728,1.751
729,1.732
730,1.812
731,1.859
732,1.863
733,1.852
734,1.902
735,1.913
736,1.783
737,1.899
738,1.989
739,1.837
740,1.91
741,1.899
742,1.946
743,2.047
744,1.939
745,1.899
746,2.04
747,1.986
748,2.072
749,2.004
750,1.957
751,1.79
752,1.772
753,1.866
754,1.874
755,1.917
756,1.884
757,1.769
758,1.798
759,1.653
760,1.711
761,1.74
762,1.624
763,1.57
764,1.671
765,1.783
766,1.823
767,1.812
768,1.675
769,1.675
770,1.718
771,1.7
772,1.646
773,1.675
774,1.704
775,1.718
776,1.776
777,1.776
778,1.772
779,1.837
780,1.732
781,1.646
782,1.468
783,1.667
784,2.145
785,2.318
786,2.08
787,2.025
788,2.174
789,2.069
790,1.946
791,1.863
792,1.819
793,1.74
794,1.754
795,1.747
796,1.751
797,1.776
798,1.917
799,1.964
800,2.0
801,2.062
802,2.007
803,1.982
804,2.04
805,2.0
806,1.917
807,1.812
808,1.751
809,1.689
810,1.628
811,1.631
812,1.606
813,1.609
814,1.62
815,1.671
816,1.707
817,1.671
818,1.693
819,1.732
820,1.79
821,1.794
822,1.783
823,1.805
824,1.798
825,1.837
826,1.91
827,1.957
828,1.971
829,1.986
830,1.968
831,1.946
832,1.931
833,1.935
834,1.852
835,1.942
836,1.855
837,1.874
838,1.946
839,1.761
840,1.758
841,1.794
842,1.816
843,1.779
844,1.769
845,1.801
846,1.754
847,1.79
848,1.874
849,1.819
850,1.751
851,1.751
852,1.837
853,1.863
854,1.83
855,1.881
856,1.852
857,1.845
858,1.906
859,1.794
860,1.761
861,1.747
862,1.895
863,1.884
864,1.928
865,1.732
866,1.808
867,1.801
868,1.87
869,1.855
870,1.801
871,1.729
872,1.769
873,1.823
874,1.863
875,1.848
876,1.816
877,1.707
878,1.606
879,1.751
880,1.675
881,1.689
882,1.758
883,1.874
884,2.036
885,1.906
886,1.899
887,1.754
888,1.808
889,1.863
890,1.928
891,1.978
892,1.957
893,1.928
894,1.895
895,1.892
896,1.87
897,1.823
898,1.855
899,1.722
900,1.877
901,1.913
902,1.349
903,1.566
904,1.874
905,1.866
906,1.942
907,1.877
908,1.899
909,1.946
910,1.841
911,1.743
912,1.671
913,1.798
914,1.852
915,1.91
916,1.888
917,1.794
918,1.816
919,1.754
920,1.765
921,1.609
922,1.602
923,1.664
924,1.913
925,1.986
926,2.033
927,1.946
928,2.138
929,1.83
930,1.718
931,1.732
932,1.787
933,1.798
934,1.747
935,1.761
936,1.714
937,1.957
938,1.986
939,1.913
940,2.054
941,1.971
942,1.794
943,1.863
944,1.841
945,1.837
946,1.877
947,1.819
948,1.801
949,1.779
950,1.682
951,1.476
952,1.599
953,1.921
954,2.087
955,2.062
956,2.094
957,1.978
958,1.736
959,1.591
960,1.559
961,1.678
962,1.772
963,1.7
964,1.678
965,1.747
966,1.855
967,1.888
968,1.877
969,1.942
970,2.018
971,2.007
972,1.888
973,1.787
974,1.743
975,1.685
976,1.638
977,1.581
978,1.631
979,1.722
980,1.779
981,1.823
982,1.874
983,1.91
984,1.942
985,1.975
986,2.04
987,2.087
988,2.051
989,2.007
990,1.968
991,1.899
992,1.852
993,1.848
994,1.794
995,1.754
996,1.769
997,1.826
998,1.808
999,1.801
1000,1.816
1001,1.808
1002,1.787
1003,1.722
1004,1.707
1005,1.682
1006,1.609
1007,1.591
1008,1.613
1009,1.613
1010,1.609
1011,1.649
1012,1.736
1013,1.841
1014,1.949
1015,2.033
1016,2.271
1017,2.101
1018,1.935
1019,1.866
1020,1.841
1021,1.83
1022,1.83
1023,1.837
1024,1.855
1025,1.874
1026,1.863
1027,1.848
1028,1.845
1029,1.837
1030,1.845
1031,1.874
1032,1.881
1033,1.855
1034,1.826
1035,1.845
1036,1.874
1037,1.881
1038,1.881
1039,1.848
1040,1.83
1041,1.801
1042,1.761
1043,1.718
1044,1.675
1045,1.642
1046,1.631
1047,1.664
1048,1.714
1049,1.758
1050,1.787
1051,1.855
1052,1.895
1053,1.913
1054,1.902
1055,1.881
1056,1.852
1057,1.816
1058,1.787
1059,1.765
1060,1.754
1061,1.779
1062,1.816
1063,1.866
1064,1.917
1065,1.949
1066,1.964
1067,1.971
1068,1.978
1069,1.968
1070,1.921
1071,1.884
1072,1.841
1073,1.805
1074,1.743
1075,1.689
1076,1.653
1077,1.657
1078,1.675
1079,1.707
1080,1.743
1081,1.769
1082,1.794
1083,1.801
1084,1.787
1085,1.743
1086,1.79
1087,1.982
1088,2.112
1089,2.112
1090,2.138
1091,2.116
1092,2.018
1093,1.906
1094,1.841
1095,1.805
1096,1.769
1097,1.765
1098,1.776
1099,1.779
1100,1.787
1101,1.794
1102,1.761
1103,1.751
1104,1.725
1105,1.693
1106,1.667
1107,1.667
1108,1.675
1109,1.707
1110,1.732
1111,1.761
1112,1.783
1113,1.823
1114,1.863
1115,1.874
1116,1.888
1117,1.892
1118,1.892
1119,1.892
1120,1.866
1121,1.834
1122,1.83
1123,1.826
1124,1.816
1125,1.826
1126,1.826
1127,1.826
1128,1.837
1129,1.834
1130,1.83
1131,1.812
1132,1.823
1133,1.826
1134,1.845
1135,1.874
1136,1.902
1137,1.902
1138,1.895
1139,1.884
1140,1.881
1141,1.874
1142,1.863
1143,1.837
1144,1.834
1145,1.801
1146,1.772
1147,1.776
1148,1.776
1149,1.812
1150,1.83
1151,1.834
1152,1.841
1153,1.866
1154,1.866
1155,1.874
1156,1.837
1157,1.826
1158,1.805
1159,1.779
1160,1.758
1161,1.722
1162,1.704
1163,1.704
1164,1.711
1165,1.736
1166,1.779
1167,1.808
1168,1.855
1169,1.874
1170,1.881
1171,1.881
1172,1.859
1173,1.841
1174,1.823
1175,1.812
1176,1.816
1177,1.845
1178,1.848
1179,1.848
1180,1.848
1181,1.863
1182,1.888
1183,1.892
1184,1.87
1185,1.834
1186,1.808
1187,1.787
1188,1.783
1189,1.787
1190,1.819
1191,1.87
1192,1.913
1193,1.935
1194,1.931
1195,1.928
1196,1.921
1197,1.881
1198,1.826
1199,1.776
1200,1.729
1201,1.711
1202,1.718
1203,1.74
1204,1.758
1205,1.79
1206,1.801
1207,1.812
1208,1.819
1209,1.837
1210,1.834
1211,1.83
1212,1.826
1213,1.812
1214,1.79
1215,1.758
1216,1.729
1217,1.711
1218,1.711
1219,1.722
1220,1.751
1221,1.808
1222,1.884
1223,1.986
1224,2.065
1225,2.098
1226,2.076
1227,1.978
1228,1.866
1229,1.79
1230,1.722
1231,1.7
1232,1.714
1233,1.765
1234,1.801
1235,1.83
1236,1.863
1237,1.884
1238,1.895
1239,1.884
1240,1.874
1241,1.852
1242,1.823
1243,1.805
1244,1.798
1245,1.772
1246,1.761
1247,1.732
1248,1.714
1249,1.671
1250,1.664
1251,1.743
1252,1.874
1253,1.996
1254,2.098
1255,2.134
1256,2.091
1257,1.982
1258,1.823
1259,1.675
1260,1.566
1261,1.497
1262,1.461
1263,1.49
1264,1.624
1265,1.826
1266,2.065
1267,2.232
1268,2.297
1269,2.261
1270,2.098
1271,1.953
1272,1.794
1273,1.664
1274,1.552
1275,1.476
1276,1.501
1277,1.526
1278,1.602
1279,1.685
1280,1.732
1281,1.779
1282,1.852
1283,1.899
1284,1.935
1285,1.986
1286,1.975
1287,1.971
1288,1.928
1289,1.826
1290,1.812
1291,1.747
1292,1.74
1293,1.758
1294,1.801
1295,1.895
1296,1.96
1297,2.007
1298,1.978
1299,1.935
1300,1.881
1301,1.841
1302,1.801
1303,1.779
1304,1.769
1305,1.769
1306,1.776
1307,1.805
1308,1.852
1309,1.888
1310,1.906
1311,1.899
1312,1.884
1313,1.895
1314,1.902
1315,1.91
1316,1.874
1317,1.841
1318,1.794
1319,1.74
1320,1.722
1321,1.722
1322,1.743
1323,1.779
1324,1.819
1325,1.812
1326,1.787
1327,1.751
1328,1.74
1329,1.707
1330,1.685
1331,1.704
1332,1.736
1333,1.772
1334,1.805
1335,1.812
1336,1.83
1337,1.855
1338,1.841
1339,1.769
1340,1.711
1341,1.722
1342,1.79
1343,1.855
1344,1.884
1345,1.913
1346,1.953
1347,1.968
1348,1.989
1349,2.011
1350,2.0
1351,2.025
1352,2.033
1353,2.087
1354,2.047
1355,2.004
1356,1.877
1357,1.732
1358,1.671
1359,1.736
1360,1.722
1361,1.671
1362,1.62
1363,1.602
1364,1.631
1365,1.628
1366,1.678
1367,1.747
1368,1.819
1369,1.837
1370,1.79
1371,1.729
1372,1.732
1373,1.689
1374,1.685
1375,1.732
1376,1.874
1377,2.018
1378,2.119
1379,2.13
1380,2.072
1381,1.968
1382,1.906
1383,1.808
1384,1.754
1385,1.711
1386,1.671
1387,1.729
1388,1.996
1389,2.246
1390,2.181
1391,2.098
1392,2.058
1393,1.917
1394,1.707
1395,1.588
1396,1.447
1397,1.335
1398,1.385
1399,1.577
1400,1.74
1401,1.917
1402,1.978
1403,1.989
1404,2.029
1405,1.996
1406,1.83
1407,1.714
1408,1.617
1409,1.552
1410,1.559
1411,1.609
1412,1.682
1413,1.805
1414,1.939
1415,2.036
1416,2.109
1417,2.195
1418,2.217
1419,2.17
1420,2.065
1421,1.942
1422,1.801
1423,1.682
1424,1.631
1425,1.62
1426,1.642
1427,1.675
1428,1.696
1429,1.758
1430,1.794
1431,1.801
1432,1.783
1433,1.794
1434,1.794
1435,1.826
1436,1.902
1437,1.906
1438,1.888
1439,1.924
1440,1.924
1441,1.877
1442,1.877
1443,1.939
1444,1.949
1445,1.913
1446,1.823
1447,1.718
1448,1.675
1449,1.667
1450,1.711
1451,1.783
1452,1.899
1453,1.96
1454,1.96
1455,1.931
1456,1.866
1457,1.801
1458,1.747
1459,1.718
1460,1.722
1461,1.704
1462,1.667
1463,1.649
1464,1.631
1465,1.653
1466,1.667
1467,1.747
1468,1.823
1469,1.866
1470,1.931
1471,1.957
1472,1.957
1473,1.964
1474,1.946
1475,1.968
1476,1.96
1477,1.986
1478,1.953
1479,1.892
1480,1.826
1481,1.747
1482,1.776
1483,1.776
1484,1.783
1485,1.787
1486,1.783
1487,1.845
1488,1.902
1489,1.921
1490,1.866
1491,1.808
1492,1.772
1493,1.743
1494,1.783
1495,1.816
1496,1.881
1497,1.895
1498,1.895
1499,1.902
1500,1.874
1501,1.902
1502,1.895
1503,1.877
1504,1.881
1505,1.845
1506,1.852
1507,1.769
1508,1.707
1509,1.685
1510,1.711
1511,1.751
1512,1.725
1513,1.761
1514,1.765
1515,1.819
1516,1.834
1517,1.794
1518,1.769
1519,1.736
1520,1.74
1521,1.794
1522,1.758
1523,1.783
1524,1.787
1525,1.801
1526,1.805
1527,1.837
1528,1.899
1529,1.859
1530,1.852
1531,1.808
1532,1.776
1533,1.819
1534,1.888
1535,1.928
1536,1.949
1537,1.931
1538,1.924
1539,1.87
1540,1.866
1541,1.812
1542,1.834
1543,1.834
1544,1.823
1545,1.798
1546,1.747
1547,1.772
1548,1.812
1549,1.888
1550,1.96
1551,1.949
1552,1.812
1553,1.544
1554,1.483
1555,1.714
1556,2.101
1557,2.43
1558,2.441
1559,2.308
1560,2.083
1561,1.863
1562,1.588
1563,1.306
1564,1.212
1565,1.219
1566,1.309
1567,1.385
1568,1.581
1569,1.877
1570,2.17
1571,2.373
1572,2.427
1573,2.329
1574,2.152
1575,1.917
1576,1.722
1577,1.631
1578,1.562
1579,1.523
1580,1.505
1581,1.537
1582,1.584
1583,1.635
1584,1.667
1585,1.704
1586,1.798
1587,1.877
1588,1.971
1589,2.076
1590,2.123
1591,2.148
1592,2.091
1593,2.043
1594,2.011
1595,1.939
1596,1.87
1597,1.798
1598,1.751
1599,1.718
1600,1.722
1601,1.725
1602,1.729
1603,1.732
1604,1.722
1605,1.693
1606,1.732
1607,1.794
1608,1.913
1609,2.0
1610,2.025
1611,2.018
1612,1.975
1613,1.946
1614,1.834
1615,1.754
1616,1.693
1617,1.642
1618,1.66
1619,1.657
1620,1.671
1621,1.696
1622,1.769
1623,1.855
1624,1.877
1625,1.96
1626,1.968
1627,1.942
1628,1.928
1629,1.902
1630,1.866
1631,1.819
1632,1.79
1633,1.765
1634,1.754
1635,1.798
1636,1.83
1637,1.805
1638,1.758
1639,1.725
1640,1.74
1641,1.751
1642,1.783
1643,1.751
1644,1.783
1645,1.834
1646,1.863
1647,1.899
1648,1.895
1649,1.91
1650,1.892
1651,1.855
1652,1.87
1653,1.877
1654,1.845
1655,1.841
1656,1.83
1657,1.794
1658,1.754
1659,1.765
1660,1.751
1661,1.729
1662,1.714
1663,1.732
1664,1.743
1665,1.845
1666,1.953
1667,2.025
1668,2.029
1669,2.022
1670,1.978
1671,1.957
1672,1.946
1673,1.942
1674,1.899
1675,1.808
1676,1.747
1677,1.725
1678,1.678
1679,1.714
1680,1.718
1681,1.685
1682,1.638
1683,1.628
1684,1.696
1685,1.776
1686,1.816
1687,1.725
1688,1.671
1689,1.693
1690,1.787
1691,2.195
1692,2.159
1693,1.978
1694,1.877
1695,1.989
1696,2.0
1697,1.921
1698,1.848
1699,1.754
1700,1.696
1701,1.7
1702,1.736
1703,1.765
1704,1.787
1705,1.823
1706,1.841
1707,1.877
1708,1.892
1709,1.892
1710,1.884
1711,1.863
1712,1.841
1713,1.808
1714,1.816
1715,1.859
1716,1.874
1717,1.87
1718,1.848
1719,1.823
1720,1.805
1721,1.779
1722,1.783
1723,1.783
1724,1.74
1725,1.722
1726,1.74
1727,1.776
1728,1.747
1729,1.707
1730,1.685
1731,1.667
1732,1.678
1733,1.743
1734,1.837
1735,1.924
1736,1.986
1737,1.986
1738,1.928
1739,1.906
1740,1.863
1741,1.852
1742,1.848
1743,1.855
1744,1.892
1745,1.946
1746,1.942
1747,1.91
1748,1.845
1749,1.801
1750,1.776
1751,1.743
1752,1.729
1753,1.743
1754,1.79
1755,1.834
1756,1.917
1757,1.989
1758,2.029
1759,2.022
1760,1.953
1761,1.906
1762,1.845
1763,1.769
1764,1.714
1765,1.685
1766,1.689
1767,1.711
1768,1.747
1769,1.805
1770,1.808
1771,1.816
1772,1.798
1773,1.787
1774,1.769
1775,1.794
1776,1.776
1777,1.747
1778,1.736
1779,1.722
1780,1.729
1781,1.751
1782,1.779
1783,1.801
1784,1.83
1785,1.877
1786,1.892
1787,1.892
1788,1.888
1789,1.863
1790,1.848
1791,1.87
1792,1.91
1793,1.96
1794,1.964
1795,1.949
1796,1.921
1797,1.921
1798,1.895
1799,1.874
1800,1.874
1801,1.834
1802,1.83
1803,1.783
1804,1.743
1805,1.711
1806,1.722
1807,1.747
1808,1.772
1809,1.794
1810,1.794
1811,1.776
1812,1.754
1813,1.79
1814,1.79
1815,1.805
1816,1.761
1817,1.765
1818,1.754
1819,1.801
1820,1.848
1821,1.892
1822,1.913
1823,1.91
1824,1.928
1825,1.881
1826,1.848
1827,1.761
1828,1.74
1829,1.747
1830,1.776
1831,1.787
1832,1.826
1833,1.877
1834,1.921
1835,1.939
1836,1.968
1837,1.949
1838,1.931
1839,1.931
1840,1.902
1841,1.881
1842,1.863
1843,1.834
1844,1.761
1845,1.729
1846,1.729
1847,1.736
1848,1.736
1849,1.765
1850,1.808
1851,1.83
1852,1.859
1853,1.899
1854,1.921
1855,1.874
1856,1.826
1857,1.761
1858,1.736
1859,1.718
1860,1.751
1861,1.776
1862,1.801
1863,1.794
1864,1.74
1865,1.638
1866,1.57
1867,1.631
1868,1.892
1869,2.145
1870,2.358
1871,2.452
1872,2.394
1873,2.224
1874,1.96
1875,1.685
1876,1.595
1877,1.537
1878,1.436
1879,1.295
1880,1.244
1881,1.32
1882,1.472
1883,1.718
1884,1.877
1885,1.852
1886,1.671
1887,1.508
1888,1.505
1889,1.584
1890,1.689
1891,1.675
1892,1.704
1893,1.736
1894,1.874
1895,1.96
1896,2.043
1897,2.062
1898,2.047
1899,2.062
1900,2.094
1901,2.163
1902,2.188
1903,2.275
1904,2.373
1905,2.441
1906,2.416
1907,2.318
1908,2.25
1909,2.181
1910,2.119
1911,2.072
1912,2.025
1913,1.949
1914,1.877
1915,1.826
1916,1.704
1917,1.588
1918,1.505
1919,1.421
1920,1.411
1921,1.389
1922,1.382
1923,1.378
1924,1.396
1925,1.418
1926,1.472
1927,1.548
1928,1.631
1929,1.707
1930,1.754
1931,1.808
1932,1.852
1933,1.906
1934,1.924
1935,1.971
1936,1.968
1937,1.924
1938,1.848
1939,1.83
1940,1.769
1941,1.696
1942,1.62
1943,1.577
1944,1.566
1945,1.602
1946,1.664
1947,1.711
1948,1.754
1949,1.841
1950,1.91
1951,1.953
1952,1.993
1953,2.015
1954,2.029
1955,2.058
1956,2.062
1957,2.091
1958,2.112
1959,2.13
1960,2.123
1961,2.004
1962,1.924
1963,1.83
1964,1.74
1965,1.649
1966,1.595
1967,1.559
1968,1.57
1969,1.609
1970,1.66
1971,1.718
1972,1.783
1973,1.859
1974,1.91
1975,1.957
1976,1.986
1977,2.007
1978,2.015
1979,2.036
1980,2.043
1981,2.029
1982,2.022
1983,2.011
1984,1.993
1985,1.978
1986,1.968
1987,1.946
1988,1.921
1989,1.881
1990,1.848
1991,1.808
1992,1.769
1993,1.718
1994,1.689
1995,1.675
1996,1.667
1997,1.664
1998,1.642
1999,1.595
2000,1.631
2001,1.798
2002,1.917
2003,1.892
2004,1.899
2005,1.888
2006,1.779
2007,1.631
2008,1.501
2009,1.396
2010,1.345
2011,1.382
2012,1.479
2013,1.57
2014,1.675
2015,1.783
2016,1.874
2017,1.931
2018,1.942
2019,1.928
2020,1.892
2021,1.863
2022,1.848
2023,1.841
2024,1.83
2025,1.848
2026,1.899
2027,1.964
2028,2.054
2029,2.091
2030,2.112
2031,2.087
2032,2.047
2033,1.996
2034,1.968
2035,1.935
2036,1.899
2037,1.837
2038,1.79
2039,1.794
2040,1.808
2041,1.83
2042,1.877
2043,1.892
2044,1.877
2045,1.848
2046,1.823
2047,1.805
2048,1.79
2049,1.772
2050,1.769
2051,1.772
2052,1.801
2053,1.848
2054,1.874
2055,1.902
2056,1.917
2057,1.917
2058,1.902
2059,1.877
2060,1.852
2061,1.816
2062,1.808
2063,1.801
2064,1.805
2065,1.79
2066,1.79
2067,1.772
2068,1.761
2069,1.74
2070,1.725
2071,1.707
2072,1.718
2073,1.725
2074,1.747
2075,1.74
2076,1.722
2077,1.736
2078,1.718
2079,1.707
2080,1.711
2081,1.751
2082,1.812
2083,1.845
2084,1.892
2085,1.906
2086,1.902
2087,1.874
2088,1.855
2089,1.808
2090,1.794
2091,1.772
2092,1.798
2093,1.83
2094,1.848
2095,1.863
2096,1.87
2097,1.859
2098,1.859
2099,1.87
2100,1.895
2101,1.917
2102,1.946
2103,1.96
2104,1.949
2105,1.939
2106,1.928
2107,1.888
2108,1.823
2109,1.754
2110,1.714
2111,1.696
2112,1.696
2113,1.722
2114,1.743
2115,1.751
2116,1.769
2117,1.823
2118,1.888
2119,1.928
2120,1.935
2121,1.935
2122,1.906
2123,1.888
2124,1.859
2125,1.826
2126,1.816
2127,1.808
2128,1.863
2129,1.87
2130,1.874
2131,1.826
2132,1.798
2133,1.747
2134,1.754
2135,1.758
2136,1.769
2137,1.783
2138,1.783
2139,1.808
2140,1.801
2141,1.841
2142,1.874
2143,1.939
2144,1.946
2145,1.913
2146,1.834
2147,1.79
2148,1.801
2149,1.819
2150,1.823
2151,1.808
2152,1.776
2153,1.722
2154,1.696
2155,1.704
2156,1.722
2157,1.801
2158,1.855
2159,1.884
2160,1.859
2161,1.823
2162,1.794
2163,1.801
2164,1.819
2165,1.801
2166,1.798
2167,1.736
2168,1.722
2169,1.704
2170,1.747
2171,1.805
2172,1.884
2173,1.982
2174,2.058
2175,2.058
2176,2.0
2177,1.906
2178,1.642
2179,1.385
2180,1.382
2181,1.714
2182,2.174
2183,2.521
2184,2.546
2185,2.449
2186,2.282
2187,2.029
2188,1.693
2189,1.349
2190,1.161
2191,1.157
2192,1.251
2193,1.414
2194,1.638
2195,1.859
2196,2.036
2197,2.134
2198,2.177
2199,2.163
2200,2.094
2201,1.982
2202,1.881
2203,1.729
2204,1.595
2205,1.501
2206,1.497
2207,1.534
2208,1.617
2209,1.711
2210,1.808
2211,1.928
2212,2.0
2213,2.036
2214,2.029
2215,2.004
2216,1.939
2217,1.899
2218,1.881
2219,1.863
2220,1.845
2221,1.805
2222,1.787
2223,1.779
2224,1.812
2225,1.819
2226,1.848
2227,1.845
2228,1.863
2229,1.855
2230,1.866
2231,1.852
2232,1.823
2233,1.798
2234,1.765
2235,1.754
2236,1.758
2237,1.783
2238,1.808
2239,1.826
2240,1.848
2241,1.848
2242,1.83
2243,1.826
2244,1.83
2245,1.855
2246,1.863
2247,1.874
2248,1.816
2249,1.783
2250,1.761
2251,1.772
2252,1.761
2253,1.769
2254,1.769
2255,1.751
2256,1.747
2257,1.772
2258,1.845
2259,1.877
2260,1.942
2261,1.964
2262,1.96
2263,1.91
2264,1.848
2265,1.787
2266,1.743
2267,1.725
2268,1.718
2269,1.769
2270,1.79
2271,1.87
2272,1.91
2273,1.928
2274,1.917
2275,1.899
2276,1.855
2277,1.805
2278,1.769
2279,1.794
2280,1.845
2281,1.877
2282,1.892
2283,1.87
2284,1.83
2285,1.794
2286,1.758
2287,1.758
2288,1.783
2289,1.834
2290,1.87
2291,1.877
2292,1.855
2293,1.877
2294,1.877
2295,1.884
2296,1.863
2297,1.83
2298,1.769
2299,1.732
2300,1.725
2301,1.722
2302,1.729
2303,1.736
2304,1.7
2305,1.732
2306,1.736
2307,1.74
2308,1.787
2309,1.801
2310,1.74
2311,1.718
2312,2.004
2313,2.351
2314,2.315
2315,2.163
2316,2.091
2317,1.866
2318,1.548
2319,1.371
2320,1.298
2321,1.353
2322,1.505
2323,1.772
2324,2.051
2325,2.239
2326,2.347
2327,2.336
2328,2.21
2329,2.011
2330,1.765
2331,1.566
2332,1.443
2333,1.447
2334,1.544
2335,1.653
2336,1.787
2337,1.899
2338,1.982
2339,2.007
2340,2.0
2341,1.986
2342,1.884
2343,1.798
2344,1.732
2345,1.7
2346,1.722
2347,1.765
2348,1.805
2349,1.845
2350,1.859
2351,1.877
2352,1.874
2353,1.895
2354,1.874
2355,1.859
2356,1.826
2357,1.776
2358,1.747
2359,1.7
2360,1.667
2361,1.646
2362,1.657
2363,1.689
2364,1.729
2365,1.772
2366,1.83
2367,1.892
2368,1.928
2369,1.949
2370,1.964
2371,1.982
2372,2.018
2373,2.007
2374,1.978
2375,1.906
2376,1.826
2377,1.779
2378,1.74
2379,1.769
2380,1.798
2381,1.826
2382,1.841
2383,1.848
2384,1.859
2385,1.852
2386,1.863
2387,1.881
2388,1.895
2389,1.863
2390,1.808
2391,1.743
2392,1.682
2393,1.649
2394,1.664
2395,1.696
2396,1.743
2397,1.794
2398,1.837
2399,1.87
2400,1.834
2401,1.812
2402,1.79
2403,1.816
2404,1.852
2405,1.877
2406,1.91
2407,1.906
2408,1.91
2409,1.913
2410,1.902
2411,1.866
2412,1.823
2413,1.798
2414,1.808
2415,1.816
2416,1.819
2417,1.812
2418,1.83
2419,1.841
2420,1.895
2421,1.888
2422,1.852
2423,1.819
2424,1.769
2425,1.769
2426,1.776
2427,1.794
2428,1.808
2429,1.855
2430,1.855
2431,1.852
2432,1.83
2433,1.823
2434,1.834
2435,1.805
2436,1.801
2437,1.801
2438,1.79
2439,1.808
2440,1.826
2441,1.87
2442,1.895
2443,1.848
2444,1.776
2445,1.707
2446,1.664
2447,1.678
2448,1.732
2449,1.794
2450,1.87
2451,1.91
2452,1.935
2453,1.928
2454,1.895
2455,1.863
2456,1.837
2457,1.826
2458,1.808
2459,1.819
2460,1.83
2461,1.855
2462,1.866
2463,1.855
2464,1.837
2465,1.79
2466,1.776
2467,1.769
2468,1.794
2469,1.808
2470,1.863
2471,1.874
2472,1.834
2473,1.805
2474,1.783
2475,1.765
2476,1.769
2477,1.805
2478,1.874
2479,1.906
2480,1.949
2481,1.953
2482,1.906
2483,1.884
2484,1.816
2485,1.801
2486,1.743
2487,1.74
2488,1.794
2489,1.881
2490,1.975
2491,1.993
2492,1.978
2493,1.906
2494,1.751
2495,1.317
2496,1.262
2497,1.342
2498,1.555
2499,2.062
2500,2.467
2501,2.568
2502,2.452
2503,2.257
2504,1.975
2505,1.671
2506,1.4
2507,1.179
2508,1.222
2509,1.309
2510,1.378
2511,1.515
2512,1.949
2513,2.326
2514,2.51
2515,2.474
2516,2.279
2517,2.054
2518,1.892
2519,1.747
2520,1.606
2521,1.483
2522,1.414
2523,1.429
2524,1.501
2525,1.609
2526,1.704
2527,1.79
2528,1.866
2529,1.949
2530,2.007
2531,2.051
2532,2.051
2533,2.022
2534,1.957
2535,1.855
2536,1.776
2537,1.736
2538,1.729
2539,1.776
2540,1.823
2541,1.888
2542,1.96
2543,1.996
2544,1.996
2545,1.957
2546,1.884
2547,1.808
2548,1.754
2549,1.711
2550,1.7
2551,1.7
2552,1.729
2553,1.761
2554,1.798
2555,1.834
2556,1.855
2557,1.877
2558,1.888
2559,1.863
2560,1.855
2561,1.83
2562,1.812
2563,1.812
2564,1.816
2565,1.805
2566,1.79
2567,1.794
2568,1.761
2569,1.758
2570,1.798
2571,1.819
2572,1.83
2573,1.805
2574,1.808
2575,1.805
2576,1.801
2577,1.816
2578,1.783
2579,1.743
2580,1.725
2581,1.729
2582,1.776
2583,1.805
2584,1.863
2585,1.913
2586,1.964
2587,2.011
2588,2.015
2589,1.996
2590,1.924
2591,1.855
2592,1.798
2593,1.776
2594,1.779
2595,1.812
2596,1.87
2597,1.888
2598,1.892
2599,1.888
2600,1.837
2601,1.816
2602,1.769
2603,1.722
2604,1.711
2605,1.682
2606,1.707
2607,1.74
2608,1.779
2609,1.826
2610,1.863
2611,1.899
2612,1.899
2613,1.895
2614,1.845
2615,1.743
2616,1.808
2617,1.79
2618,1.83
2619,1.826
2620,1.812
2621,1.801
2622,1.776
2623,1.805
2624,1.812
2625,1.83
2626,1.874
2627,1.848
2628,1.812
2629,1.765
2630,1.79
2631,1.931
2632,2.138
2633,2.253
2634,2.145
2635,2.043
2636,1.964
2637,1.751
2638,1.602
2639,1.526
2640,1.465
2641,1.476
2642,1.642
2643,1.819
2644,1.913
2645,1.953
2646,1.913
2647,1.859
2648,1.783
2649,1.714
2650,1.671
2651,1.638
2652,1.671
2653,1.718
2654,1.779
2655,1.877
2656,1.957
2657,1.996
2658,2.004
2659,1.971
2660,1.91
2661,1.837
2662,1.798
2663,1.765
2664,1.747
2665,1.765
2666,1.794
2667,1.841
2668,1.888
2669,1.935
2670,1.946
2671,1.928
2672,1.902
2673,1.855
2674,1.805
2675,1.783
2676,1.776
2677,1.772
2678,1.772
2679,1.772
2680,1.794
2681,1.808
2682,1.826
2683,1.837
2684,1.845
2685,1.877
2686,1.906
2687,1.899
2688,1.874
2689,1.852
2690,1.845
2691,1.863
2692,1.852
2693,1.841
2694,1.812
2695,1.787
2696,1.772
2697,1.732
2698,1.714
2699,1.704
2700,1.718
2701,1.743
2702,1.783
2703,1.812
2704,1.845
2705,1.863
2706,1.881
2707,1.895
2708,1.888
2709,1.863
2710,1.845
2711,1.83
2712,1.801
2713,1.776
2714,1.776
2715,1.783
2716,1.798
2717,1.845
2718,1.87
2719,1.892
2720,1.888
2721,1.87
2722,1.848
2723,1.826
2724,1.812
2725,1.805
2726,1.805
2727,1.816
2728,1.823
2729,1.816
2730,1.823
2731,1.834
2732,1.852
2733,1.888
2734,1.906
2735,1.892
2736,1.881
2737,1.837
2738,1.798
2739,1.761
2740,1.747
2741,1.751
2742,1.779
2743,1.819
2744,1.87
2745,1.91
2746,1.902
2747,1.881
2748,1.83
2749,1.783
2750,1.765
2751,1.754
2752,1.758
2753,1.805
2754,1.852
2755,1.895
2756,1.91
2757,1.87
2758,1.848
2759,1.816
2760,1.812
2761,1.826
2762,1.816
2763,1.826
2764,1.808
2765,1.808
2766,1.816
2767,1.787
2768,1.772
2769,1.751
2770,1.765
2771,1.772
2772,1.776
2773,1.787
2774,1.794
2775,1.798
2776,1.801
2777,1.801
2778,1.823
2779,1.83
2780,1.845
2781,1.892
2782,1.946
2783,1.978
2784,1.953
2785,1.902
2786,1.866
2787,1.812
2788,1.812
2789,1.823
2790,1.826
2791,1.812
2792,1.79
2793,1.794
2794,1.779
2795,1.779
2796,1.812
2797,1.83
2798,1.877
2799,1.913
2800,1.906
2801,1.881
2802,1.805
2803,1.769
2804,1.732
2805,1.729
2806,1.714
2807,1.736
2808,1.754
2809,1.772
2810,1.83
2811,1.874
2812,1.917
2813,1.968
2814,1.986
2815,1.957
2816,1.859
2817,1.743
2818,1.439
2819,1.295
2820,1.371
2821,1.552
2822,1.953
2823,2.318
2824,2.51
2825,2.514
2826,2.427
2827,2.224
2828,1.913
2829,1.588
2830,1.345
2831,1.212
2832,1.23
2833,1.313
2834,1.526
2835,1.87
2836,2.206
2837,2.38
2838,2.358
2839,2.228
2840,2.025
2841,1.888
2842,1.729
2843,1.537
2844,1.411
2845,1.364
2846,1.421
2847,1.559
2848,1.711
2849,1.841
2850,1.946
2851,2.015
2852,2.022
2853,2.0
2854,1.942
2855,1.881
2856,1.834
2857,1.816
2858,1.819
2859,1.855
2860,1.902
2861,1.949
2862,1.978
2863,1.971
2864,1.931
2865,1.884
2866,1.859
2867,1.812
2868,1.758
2869,1.718
2870,1.693
2871,1.685
2872,1.707
2873,1.743
2874,1.794
2875,1.837
2876,1.874
2877,1.892
2878,1.87
2879,1.837
2880,1.79
2881,1.761
2882,1.754
2883,1.747
2884,1.754
2885,1.798
2886,1.83
2887,1.855
2888,1.845
2889,1.837
2890,1.845
2891,1.855
2892,1.863
2893,1.874
2894,1.884
2895,1.888
2896,1.888
2897,1.866
2898,1.848
2899,1.834
2900,1.812
2901,1.801
2902,1.798
2903,1.783
2904,1.776
2905,1.776
2906,1.783
2907,1.787
2908,1.787
2909,1.808
2910,1.83
2911,1.863
2912,1.913
2913,1.946
2914,1.949
2915,1.928
2916,1.888
2917,1.834
2918,1.819
2919,1.798
2920,1.772
2921,1.765
2922,1.747
2923,1.747
2924,1.751
2925,1.761
2926,1.769
2927,1.787
2928,1.798
2929,1.812
2930,1.834
2931,1.845
2932,1.855
2933,1.855
2934,1.845
2935,1.834
2936,1.863
2937,1.899
2938,1.91
2939,1.91
2940,1.874
2941,1.826
2942,1.805
2943,1.769
2944,1.729
2945,1.725
2946,1.747
2947,1.747
2948,1.74
2949,1.754
2950,1.747
2951,1.743
2952,1.761
2953,1.917
2954,2.185
2955,2.3
2956,2.098
2957,2.029
2958,1.899
2959,1.671
2960,1.526
2961,1.508
2962,1.53
2963,1.573
2964,1.693
2965,1.913
2966,2.094
2967,2.188
2968,2.159
2969,2.022
2970,1.845
2971,1.7
2972,1.591
2973,1.523
2974,1.57
2975,1.642
2976,1.74
2977,1.866
2978,1.953
2979,2.004
2980,1.993
2981,1.924
2982,1.859
2983,1.801
2984,1.776
2985,1.794
2986,1.812
2987,1.874
2988,1.931
2989,1.957
2990,1.939
2991,1.906
2992,1.83
2993,1.787
2994,1.732
2995,1.722
2996,1.732
2997,1.743
2998,1.776
2999,1.823
3000,1.826
3001,1.808
3002,1.801
3003,1.801
3004,1.776
3005,1.769
3006,1.758
3007,1.772
3008,1.805
3009,1.848
3010,1.884
3011,1.917
3012,1.906
3013,1.881
3014,1.87
3015,1.852
3016,1.837
3017,1.855
3018,1.863
3019,1.87
3020,1.881
3021,1.859
3022,1.834
3023,1.79
3024,1.743
3025,1.729
3026,1.74
3027,1.761
3028,1.812
3029,1.877
3030,1.928
3031,1.939
3032,1.91
3033,1.884
3034,1.845
3035,1.812
3036,1.798
3037,1.758
3038,1.714
3039,1.693
3040,1.689
3041,1.704
3042,1.729
3043,1.79
3044,1.845
3045,1.899
3046,1.924
3047,1.939
3048,1.921
3049,1.877
3050,1.848
3051,1.834
3052,1.845
3053,1.874
3054,1.877
3055,1.866
3056,1.837
3057,1.812
3058,1.779
3059,1.801
3060,1.805
3061,1.841
3062,1.87
3063,1.888
3064,1.902
3065,1.888
3066,1.866
3067,1.801
3068,1.783
3069,1.743
3070,1.725
3071,1.736
3072,1.761
3073,1.776
3074,1.801
3075,1.83
3076,1.852
3077,1.837
3078,1.83
3079,1.834
3080,1.841
3081,1.823
3082,1.837
3083,1.83
3084,1.819
3085,1.801
3086,1.798
3087,1.816
3088,1.855
3089,1.892
3090,1.895
3091,1.884
3092,1.841
3093,1.812
3094,1.776
3095,1.747
3096,1.725
3097,1.722
3098,1.761
3099,1.808
3100,1.877
3101,1.935
3102,1.942
3103,1.939
3104,1.899
3105,1.859
3106,1.841
3107,1.794
3108,1.783
3109,1.754
3110,1.769
3111,1.798
3112,1.855
3113,1.902
3114,1.892
3115,1.848
3116,1.812
3117,1.787
3118,1.794
3119,1.823
3120,1.87
3121,1.881
3122,1.895
3123,1.895
3124,1.826
3125,1.765
3126,1.736
3127,1.761
3128,1.758
3129,1.805
3130,1.826
3131,1.834
3132,1.812
3133,1.808
3134,1.826
3135,1.816
3136,1.812
3137,1.834
3138,1.837
3139,1.848
3140,1.863
3141,1.863
3142,1.845
3143,1.837
3144,1.852
3145,1.881
3146,1.906
3147,1.942
3148,1.917
3149,1.837
3150,1.682
3151,1.392
3152,1.288
3153,1.364
3154,1.508
3155,1.931
3156,2.34
3157,2.546
3158,2.535
3159,2.402
3160,2.174
3161,1.877
3162,1.555
3163,1.302
3164,1.179
3165,1.255
3166,1.342
3167,1.487
3168,1.834
3169,2.195
3170,2.391
3171,2.394
3172,2.239
3173,2.08
3174,1.935
3175,1.794
3176,1.638
3177,1.519
3178,1.447
3179,1.465
3180,1.555
3181,1.682
3182,1.798
3183,1.877
3184,1.946
3185,2.004
3186,2.033
3187,2.007
3188,1.939
3189,1.841
3190,1.769
3191,1.743
3192,1.732
3193,1.754
3194,1.798
3195,1.87
3196,1.935
3197,1.968
3198,1.975
3199,1.957
3200,1.899
3201,1.841
3202,1.801
3203,1.779
3204,1.772
3205,1.772
3206,1.794
3207,1.794
3208,1.79
3209,1.79
3210,1.79
3211,1.776
3212,1.772
3213,1.776
3214,1.779
3215,1.776
3216,1.776
3217,1.79
3218,1.805
3219,1.834
3220,1.841
3221,1.852
3222,1.87
3223,1.881
3224,1.866
3225,1.848
3226,1.841
3227,1.826
3228,1.834
3229,1.852
3230,1.888
3231,1.917
3232,1.902
3233,1.87
3234,1.841
3235,1.808
3236,1.765
3237,1.725
3238,1.707
3239,1.718
3240,1.736
3241,1.751
3242,1.776
3243,1.783
3244,1.823
3245,1.855
3246,1.863
3247,1.859
3248,1.859
3249,1.855
3250,1.841
3251,1.834
3252,1.845
3253,1.859
3254,1.87
3255,1.866
3256,1.866
3257,1.855
3258,1.863
3259,1.855
3260,1.855
3261,1.848
3262,1.841
3263,1.859
3264,1.874
3265,1.884
3266,1.917
3267,1.931
3268,1.917
3269,1.895
3270,1.816
3271,1.732
3272,1.667
3273,1.617
3274,1.62
3275,1.664
3276,1.711
3277,1.79
3278,1.852
3279,1.877
3280,1.881
3281,1.877
3282,1.812
3283,1.74
3284,1.743
3285,1.779
3286,1.939
3287,2.138
3288,2.076
3289,2.004
3290,1.888
3291,1.722
3292,1.555
3293,1.508
3294,1.628
3295,1.754
3296,1.892
3297,2.04
3298,2.105
3299,2.062
3300,1.978
3301,1.852
3302,1.743
3303,1.693
3304,1.664
3305,1.646
3306,1.667
3307,1.711
3308,1.765
3309,1.83
3310,1.888
3311,1.928
3312,1.924
3313,1.906
3314,1.863
3315,1.808
3316,1.776
3317,1.765
3318,1.779
3319,1.808
3320,1.834
3321,1.881
3322,1.913
3323,1.902
3324,1.895
3325,1.855
3326,1.834
3327,1.837
3328,1.845
3329,1.859
3330,1.863
3331,1.83
3332,1.772
3333,1.747
3334,1.747
3335,1.736
3336,1.751
3337,1.801
3338,1.826
3339,1.888
3340,1.939
3341,1.942
3342,1.928
3343,1.837
3344,1.798
3345,1.751
3346,1.74
3347,1.751
3348,1.758
3349,1.798
3350,1.855
3351,1.87
3352,1.884
3353,1.877
3354,1.841
3355,1.812
3356,1.812
3357,1.783
3358,1.772
3359,1.769
3360,1.805
3361,1.866
3362,1.859
3363,1.845
3364,1.834
3365,1.808
3366,1.798
3367,1.769
3368,1.805
3369,1.819
3370,1.841
3371,1.87
3372,1.855
3373,1.859
3374,1.805
3375,1.779
3376,1.761
3377,1.761
3378,1.794
3379,1.812
3380,1.841
3381,1.834
3382,1.863
3383,1.895
3384,1.874
3385,1.888
3386,1.863
3387,1.859
3388,1.859
3389,1.888
3390,1.91
3391,1.892
3392,1.888
3393,1.841
3394,1.794
3395,1.736
3396,1.671
3397,1.675
3398,1.689
3399,1.758
3400,1.859
3401,1.874
3402,1.942
3403,1.939
3404,1.953
3405,1.899
3406,1.841
3407,1.877
3408,1.841
3409,1.816
3410,1.808
3411,1.754
3412,1.765
3413,1.751
3414,1.816
3415,1.892
3416,1.888
3417,1.917
3418,1.859
3419,1.816
3420,1.743
3421,1.696
3422,1.711
3423,1.685
3424,1.729
3425,1.758
3426,1.801
3427,1.841
3428,1.841
3429,1.866
3430,1.863
3431,1.895
3432,1.888
3433,1.845
3434,1.863
3435,1.812
3436,1.808
3437,1.816
3438,1.823
3439,1.845
3440,1.826
3441,1.884
3442,1.884
3443,1.892
3444,1.87
3445,1.837
3446,1.874
3447,1.884
3448,1.881
3449,1.819
3450,1.801
3451,1.765
3452,1.754
3453,1.754
3454,1.751
3455,1.772
3456,1.805
3457,1.816
3458,1.874
3459,1.87
3460,1.87
3461,1.855
3462,1.837
3463,1.852
3464,1.855
3465,1.863
3466,1.866
3467,1.866
3468,1.834
3469,1.859
3470,1.895
3471,1.899
3472,1.841
3473,1.783
3474,1.7
3475,1.66
3476,1.642
3477,1.678
3478,1.751
3479,1.845
3480,1.91
3481,1.881
3482,1.888
3483,1.859
3484,1.837
3485,1.837
3486,1.884
3487,1.892
3488,1.819
3489,1.678
3490,1.335
3491,1.342
3492,1.414
3493,1.646
3494,2.105
3495,2.492
3496,2.622
3497,2.506
3498,2.383
3499,2.159
3500,1.812
3501,1.461
3502,1.244
3503,1.168
3504,1.259
3505,1.374
3506,1.638
3507,1.975
3508,2.242
3509,2.347
3510,2.34
3511,2.224
3512,2.069
3513,1.892
3514,1.696
3515,1.508
3516,1.389
3517,1.331
3518,1.392
3519,1.515
3520,1.657
3521,1.783
3522,1.902
3523,2.033
3524,2.065
3525,2.062
3526,2.018
3527,1.946
3528,1.899
3529,1.863
3530,1.837
3531,1.83
3532,1.852
3533,1.881
3534,1.921
3535,1.939
3536,1.942
3537,1.917
3538,1.888
3539,1.834
3540,1.794
3541,1.758
3542,1.725
3543,1.736
3544,1.761
3545,1.794
3546,1.805
3547,1.808
3548,1.798
3549,1.758
3550,1.74
3551,1.722
3552,1.725
3553,1.751
3554,1.776
3555,1.808
3556,1.841
3557,1.845
3558,1.87
3559,1.888
3560,1.881
3561,1.884
3562,1.863
3563,1.863
3564,1.848
3565,1.83
3566,1.812
3567,1.787
3568,1.761
3569,1.758
3570,1.783
3571,1.812
3572,1.837
3573,1.866
3574,1.877
3575,1.895
3576,1.906
3577,1.895
3578,1.87
3579,1.83
3580,1.823
3581,1.823
3582,1.834
3583,1.837
3584,1.816
3585,1.801
3586,1.805
3587,1.808
3588,1.83
3589,1.837
3590,1.834
3591,1.837
3592,1.823
3593,1.823
3594,1.805
3595,1.776
3596,1.783
3597,1.798
3598,1.808
3599,1.816
3600,1.805
3601,1.816
3602,1.819
3603,1.837
3604,1.852
3605,1.866
3606,1.87
3607,1.855
3608,1.837
3609,1.823
3610,1.798
3611,1.779
3612,1.779
3613,1.772
3614,1.794
3615,1.79
3616,1.765
3617,1.747
3618,1.776
3619,1.794
3620,1.776
3621,1.761
3622,1.758
3623,1.949
3624,2.232
3625,2.242
3626,2.065
3627,1.971
3628,1.877
3629,1.732
3630,1.602
3631,1.573
3632,1.588
3633,1.62
3634,1.736
3635,1.899
3636,2.029
3637,2.062
3638,2.065
3639,2.004
3640,1.888
3641,1.772
3642,1.66
3643,1.573
3644,1.566
3645,1.606
3646,1.667
3647,1.772
3648,1.845
3649,1.892
3650,1.892
3651,1.888
3652,1.863
3653,1.837
3654,1.834
3655,1.848
3656,1.863
3657,1.863
3658,1.866
3659,1.848
3660,1.826
3661,1.798
3662,1.798
3663,1.83
3664,1.87
3665,1.888
3666,1.906
3667,1.888
3668,1.884
3669,1.852
3670,1.808
3671,1.787
3672,1.74
3673,1.736
3674,1.765
3675,1.812
3676,1.848
3677,1.855
3678,1.855
3679,1.834
3680,1.855
3681,1.845
3682,1.837
3683,1.83
3684,1.823
3685,1.823
3686,1.805
3687,1.787
3688,1.769
3689,1.758
3690,1.794
3691,1.823
3692,1.837
3693,1.841
3694,1.845
3695,1.848
3696,1.845
3697,1.83
3698,1.83
3699,1.845
3700,1.848
3701,1.877
3702,1.888
3703,1.866
3704,1.87
3705,1.848
3706,1.841
3707,1.819
3708,1.787
3709,1.772
3710,1.787
3711,1.772
3712,1.783
3713,1.812
3714,1.826
3715,1.837
3716,1.834
3717,1.826
3718,1.823
3719,1.805
3720,1.812
3721,1.801
3722,1.787
3723,1.798
3724,1.772
3725,1.798
3726,1.819
3727,1.823
3728,1.855
3729,1.895
3730,1.913
3731,1.91
3732,1.888
3733,1.852
3734,1.801
3735,1.787
3736,1.776
3737,1.776
3738,1.819
3739,1.863
3740,1.874
3741,1.877
3742,1.877
3743,1.855
3744,1.79
3745,1.776
3746,1.787
3747,1.808
3748,1.837
3749,1.823
3750,1.823
3751,1.794
3752,1.765
3753,1.769
3754,1.772
3755,1.823
3756,1.837
3757,1.87
3758,1.906
3759,1.913
3760,1.921
3761,1.917
3762,1.837
3763,1.794
3764,1.761
3765,1.751
3766,1.779
3767,1.812
3768,1.787
3769,1.79
3770,1.787
3771,1.805
3772,1.819
3773,1.801
3774,1.787
3775,1.772
3776,1.83
3777,1.852
3778,1.845
3779,1.863
3780,1.874
3781,1.902
3782,1.877
3783,1.852
3784,1.823
3785,1.816
3786,1.816
3787,1.837
3788,1.845
3789,1.845
3790,1.863
3791,1.855
3792,1.801
3793,1.754
3794,1.743
3795,1.772
3796,1.805
3797,1.826
3798,1.845
3799,1.845
3800,1.859
3801,1.855
3802,1.834
3803,1.819
3804,1.765
3805,1.783
3806,1.787
3807,1.848
3808,1.866
3809,1.859
3810,1.855
3811,1.852
3812,1.837
3813,1.841
3814,1.841
3815,1.834
3816,1.855
3817,1.87
3818,1.906
3819,1.877
3820,1.848
3821,1.812
3822,1.765
3823,1.751
3824,1.772
3825,1.834
3826,1.874
3827,1.841
3828,1.754
3829,1.53
3830,1.295
3831,1.371
3832,1.439
3833,1.855
3834,2.297
3835,2.543
3836,2.564
3837,2.467
3838,2.239
3839,1.906
3840,1.494
3841,1.201
3842,1.19
3843,1.273
3844,1.414
3845,1.66
3846,1.913
3847,2.116
3848,2.271
3849,2.344
3850,2.318
3851,2.25
3852,2.109
3853,1.892
3854,1.617
3855,1.374
3856,1.266
3857,1.288
3858,1.45
3859,1.638
3860,1.758
3861,1.874
3862,1.957
3863,2.015
3864,2.0
3865,1.96
3866,1.913
3867,1.87
3868,1.863
3869,1.859
3870,1.852
3871,1.899
3872,1.917
3873,1.939
3874,1.939
3875,1.924
3876,1.895
3877,1.863
3878,1.808
3879,1.761
3880,1.747
3881,1.718
3882,1.714
3883,1.729
3884,1.794
3885,1.841
3886,1.859
3887,1.855
3888,1.859
3889,1.859
3890,1.823
3891,1.772
3892,1.722
3893,1.718
3894,1.747
3895,1.801
3896,1.834
3897,1.899
3898,1.935
3899,1.931
3900,1.902
3901,1.841
3902,1.798
3903,1.743
3904,1.754
3905,1.772
3906,1.79
3907,1.812
3908,1.819
3909,1.819
3910,1.812
3911,1.801
3912,1.805
3913,1.808
3914,1.794
3915,1.816
3916,1.848
3917,1.874
3918,1.892
3919,1.895
3920,1.892
3921,1.913
3922,1.913
3923,1.91
3924,1.859
3925,1.834
3926,1.83
3927,1.816
3928,1.816
3929,1.798
3930,1.772
3931,1.736
3932,1.722
3933,1.711
3934,1.747
3935,1.776
3936,1.823
3937,1.855
3938,1.87
3939,1.881
3940,1.87
3941,1.848
3942,1.816
3943,1.79
3944,1.805
3945,1.823
3946,1.83
3947,1.87
3948,1.877
3949,1.884
3950,1.881
3951,1.852
3952,1.823
3953,1.772
3954,1.776
3955,1.787
3956,1.823
3957,1.805
3958,1.725
3959,1.689
3960,1.624
3961,1.685
3962,1.957
3963,2.206
3964,2.217
3965,2.203
3966,2.116
3967,1.931
3968,1.722
3969,1.599
3970,1.548
3971,1.483
3972,1.432
3973,1.519
3974,1.646
3975,1.823
3976,1.978
3977,2.065
3978,2.091
3979,2.043
3980,1.975
3981,1.895
3982,1.798
3983,1.729
3984,1.707
3985,1.711
3986,1.732
3987,1.79
3988,1.87
3989,1.888
3990,1.913
3991,1.895
3992,1.863
3993,1.823
3994,1.783
3995,1.79
3996,1.805
3997,1.805
3998,1.819
3999,1.848
4000,1.841
4001,1.834
4002,1.801
4003,1.812
4004,1.823
4005,1.837
4006,1.852
4007,1.852
4008,1.852
4009,1.87
4010,1.863
4011,1.834
4012,1.808
4013,1.779
4014,1.765
4015,1.747
4016,1.74
4017,1.79
4018,1.783
4019,1.855
4020,1.917
4021,1.957
4022,1.957
4023,1.931
4024,1.881
4025,1.801
4026,1.74
4027,1.74
4028,1.736
4029,1.74
4030,1.776
4031,1.801
4032,1.794
4033,1.812
4034,1.841
4035,1.852
4036,1.848
4037,1.834
4038,1.841
4039,1.852
4040,1.91
4041,1.924
4042,1.917
4043,1.899
4044,1.866
4045,1.826
4046,1.787
4047,1.769
4048,1.779
4049,1.783
4050,1.772
4051,1.769
4052,1.776
4053,1.812
4054,1.866
4055,1.917
4056,1.917
4057,1.913
4058,1.892
4059,1.837
4060,1.79
4061,1.729
4062,1.696
4063,1.707
4064,1.761
4065,1.798
4066,1.83
4067,1.859
4068,1.863
4069,1.863
4070,1.874
4071,1.83
4072,1.772
4073,1.718
4074,1.729
4075,1.801
4076,1.859
4077,1.91
4078,1.913
4079,1.895
4080,1.884
4081,1.863
4082,1.826
4083,1.779
4084,1.801
4085,1.819
4086,1.841
4087,1.823
4088,1.798
4089,1.801
4090,1.794
4091,1.823
4092,1.874
4093,1.895
4094,1.881
4095,1.859
4096,1.837
4097,1.801
4098,1.787
4099,1.808
4100,1.83
4101,1.837
4102,1.819
4103,1.816
4104,1.841
4105,1.863
4106,1.881
4107,1.884
4108,1.866
4109,1.83
4110,1.812
4111,1.812
4112,1.798
4113,1.776
4114,1.761
4115,1.772
4116,1.765
4117,1.772
4118,1.805
4119,1.83
4120,1.837
4121,1.859
4122,1.841
4123,1.801
4124,1.74
4125,1.783
4126,1.826
4127,1.841
4128,1.841
4129,1.884
4130,1.924
4131,1.913
4132,1.874
4133,1.819
4134,1.747
4135,1.667
4136,1.682
4137,1.747
4138,1.812
4139,1.899
4140,1.935
4141,1.953
4142,1.939
4143,1.917
4144,1.874
4145,1.841
4146,1.794
4147,1.783
4148,1.79
4149,1.79
4150,1.769
4151,1.808
4152,1.83
4153,1.819
4154,1.874
4155,1.881
4156,1.863
4157,1.837
4158,1.819
4159,1.816
4160,1.837
4161,1.906
4162,1.946
4163,1.939
4164,1.892
4165,1.693
4166,1.331
4167,1.291
4168,1.371
4169,1.729
4170,2.134
4171,2.427
4172,2.528
4173,2.449
4174,2.279
4175,1.949
4176,1.519
4177,1.233
4178,1.175
4179,1.273
4180,1.472
4181,1.7
4182,1.91
4183,2.109
4184,2.195
4185,2.232
4186,2.199
4187,2.141
4188,1.975
4189,1.743
4190,1.548
4191,1.403
4192,1.338
4193,1.396
4194,1.523
4195,1.638
4196,1.776
4197,1.892
4198,1.993
4199,2.065
4200,2.087
4201,2.062
4202,2.004
4203,1.946
4204,1.917
4205,1.884
4206,1.881
4207,1.913
4208,1.895
4209,1.888
4210,1.913
4211,1.917
4212,1.899
4213,1.866
4214,1.816
4215,1.798
4216,1.779
4217,1.758
4218,1.747
4219,1.714
4220,1.693
4221,1.685
4222,1.678
4223,1.714
4224,1.779
4225,1.837
4226,1.845
4227,1.812
4228,1.805
4229,1.761
4230,1.743
4231,1.783
4232,1.787
4233,1.837
4234,1.902
4235,1.902
4236,1.892
4237,1.874
4238,1.845
4239,1.848
4240,1.859
4241,1.881
4242,1.895
4243,1.881
4244,1.866
4245,1.852
4246,1.841
4247,1.826
4248,1.841
4249,1.83
4250,1.794
4251,1.765
4252,1.765
4253,1.769
4254,1.801
4255,1.826
4256,1.837
4257,1.87
4258,1.881
4259,1.859
4260,1.819
4261,1.783
4262,1.783
4263,1.765
4264,1.769
4265,1.794
4266,1.855
4267,1.902
4268,1.928
4269,1.921
4270,1.884
4271,1.837
4272,1.801
4273,1.801
4274,1.808
4275,1.805
4276,1.823
4277,1.805
4278,1.776
4279,1.776
4280,1.808
4281,1.798
4282,1.794
4283,1.808
4284,1.819
4285,1.826
4286,1.823
4287,1.845
4288,1.819
4289,1.812
4290,1.808
4291,1.783
4292,1.776
4293,1.772
4294,1.736
4295,1.725
4296,1.7
4297,1.696
4298,1.859
4299,2.069
4300,2.268
4301,2.38
4302,2.221
4303,2.04
4304,1.819
4305,1.548
4306,1.396
4307,1.421
4308,1.519
4309,1.62
4310,1.696
4311,1.826
4312,1.986
4313,2.098
4314,2.098
4315,2.043
4316,1.921
4317,1.79
4318,1.671
4319,1.631
4320,1.635
4321,1.711
4322,1.783
4323,1.892
4324,1.946
4325,2.0
4326,2.004
4327,1.975
4328,1.892
4329,1.812
4330,1.725
4331,1.7
4332,1.678
4333,1.7
4334,1.758
4335,1.787
4336,1.787
4337,1.816
4338,1.837
4339,1.823
4340,1.801
4341,1.801
4342,1.808
4343,1.816
4344,1.812
4345,1.801
4346,1.801
4347,1.819
4348,1.841
4349,1.859
4350,1.874
4351,1.874
4352,1.884
4353,1.895
4354,1.906
4355,1.888
4356,1.859
4357,1.826
4358,1.801
4359,1.808
4360,1.845
4361,1.87
4362,1.888
4363,1.892
4364,1.902
4365,1.91
4366,1.917
4367,1.906
4368,1.866
4369,1.801
4370,1.772
4371,1.714
4372,1.696
4373,1.685
4374,1.725
4375,1.747
4376,1.798
4377,1.83
4378,1.83
4379,1.79
4380,1.808
4381,1.801
4382,1.798
4383,1.783
4384,1.776
4385,1.758
4386,1.776
4387,1.79
4388,1.798
4389,1.808
4390,1.874
4391,1.884
4392,1.902
4393,1.895
4394,1.91
4395,1.91
4396,1.874
4397,1.855
4398,1.866
4399,1.845
4400,1.855
4401,1.848
4402,1.845
4403,1.798
4404,1.798
4405,1.747
4406,1.772
4407,1.805
4408,1.859
4409,1.913
4410,1.96
4411,1.917
4412,1.877
4413,1.819
4414,1.776
4415,1.798
4416,1.787
4417,1.747
4418,1.772
4419,1.743
4420,1.765
4421,1.769
4422,1.79
4423,1.812
4424,1.834
4425,1.837
4426,1.83
4427,1.834
4428,1.823
4429,1.812
4430,1.826
4431,1.79
4432,1.808
4433,1.798
4434,1.798
4435,1.841
4436,1.899
4437,1.906
4438,1.902
4439,1.881
4440,1.859
4441,1.87
4442,1.823
4443,1.787
4444,1.787
4445,1.801
4446,1.819
4447,1.845
4448,1.841
4449,1.859
4450,1.834
4451,1.801
4452,1.79
4453,1.808
4454,1.769
4455,1.769
4456,1.794
4457,1.863
4458,1.906
4459,1.924
4460,1.913
4461,1.899
4462,1.877
4463,1.823
4464,1.779
4465,1.736
4466,1.714
4467,1.704
4468,1.736
4469,1.794
4470,1.866
4471,1.899
4472,1.895
4473,1.863
4474,1.834
4475,1.758
4476,1.729
4477,1.732
4478,1.79
4479,1.874
4480,1.899
4481,1.917
4482,1.874
4483,1.845
4484,1.805
4485,1.776
4486,1.801
4487,1.794
4488,1.834
4489,1.848
4490,1.866
4491,1.852
4492,1.823
4493,1.837
4494,1.816
4495,1.79
4496,1.808
4497,1.816
4498,1.816
4499,1.837
4500,1.841
4501,1.855
4502,1.949
4503,1.935
4504,2.018
4505,1.986
4506,1.964
4507,1.819
4508,1.562
4509,1.23
4510,1.295
4511,1.371
4512,1.66
4513,2.083
4514,2.394
4515,2.532
4516,2.452
4517,2.322
4518,2.043
4519,1.631
4520,1.32
4521,1.175
4522,1.241
4523,1.338
4524,1.544
4525,1.83
4526,2.134
4527,2.315
4528,2.318
4529,2.25
4530,2.13
4531,1.978
4532,1.819
4533,1.624
4534,1.458
4535,1.345
4536,1.364
4537,1.468
4538,1.602
4539,1.743
4540,1.874
4541,1.982
4542,2.062
4543,2.087
4544,2.036
4545,1.982
4546,1.917
4547,1.863
4548,1.855
4549,1.845
4550,1.902
4551,1.931
4552,1.942
4553,1.931
4554,1.935
4555,1.913
4556,1.881
4557,1.866
4558,1.808
4559,1.765
4560,1.696
4561,1.678
4562,1.649
4563,1.678
4564,1.707
4565,1.751
4566,1.787
4567,1.794
4568,1.79
4569,1.779
4570,1.801
4571,1.808
4572,1.823
4573,1.834
4574,1.877
4575,1.906
4576,1.928
4577,1.935
4578,1.928
4579,1.87
4580,1.826
4581,1.79
4582,1.747
4583,1.743
4584,1.725
4585,1.747
4586,1.79
4587,1.837
4588,1.855
4589,1.866
4590,1.877
4591,1.852
4592,1.866
4593,1.826
4594,1.826
4595,1.812
4596,1.823
4597,1.83
4598,1.841
4599,1.859
4600,1.855
4601,1.866
4602,1.845
4603,1.855
4604,1.83
4605,1.845
4606,1.83
4607,1.816
4608,1.819
4609,1.812
4610,1.83
4611,1.812
4612,1.834
4613,1.826
4614,1.83
4615,1.837
4616,1.837
4617,1.837
4618,1.819
4619,1.816
4620,1.787
4621,1.787
4622,1.779
4623,1.787
4624,1.79
4625,1.769
4626,1.79
4627,1.805
4628,1.834
4629,1.808
4630,1.816
4631,1.812
4632,1.859
4633,1.921
4634,1.935
4635,1.924
4636,1.87
4637,1.834
4638,1.743
4639,1.693
4640,1.682
4641,1.736
4642,1.837
4643,2.043
4644,2.181
4645,2.091
4646,1.978
4647,1.79
4648,1.704
4649,1.613
4650,1.595
4651,1.595
4652,1.537
4653,1.552
4654,1.736
4655,1.968
4656,2.098
4657,2.141
4658,2.101
4659,2.04
4660,1.928
4661,1.798
4662,1.714
4663,1.66
4664,1.7
4665,1.747
4666,1.79
4667,1.845
4668,1.877
4669,1.902
4670,1.91
4671,1.866
4672,1.765
4673,1.747
4674,1.765
4675,1.671
4676,1.526
4677,1.816
4678,1.949
4679,1.921
4680,1.859
4681,1.805
4682,1.79
4683,1.783
4684,1.812
4685,1.866
4686,1.913
4687,1.921
4688,1.91
4689,1.895
4690,1.816
4691,1.874
4692,1.83
4693,1.83
4694,1.805
4695,1.79
4696,1.787
4697,1.816
4698,1.83
4699,1.837
4700,1.855
4701,1.892
4702,1.895
4703,1.888
4704,1.863
4705,1.845
4706,1.834
4707,1.783
4708,1.816
4709,1.79
4710,1.743
4711,1.74
4712,1.711
4713,1.729
4714,1.732
4715,1.805
4716,1.866
4717,1.892
4718,1.899
4719,1.866
4720,1.87
4721,1.837
4722,1.826
4723,1.841
4724,1.816
4725,1.805
4726,1.787
4727,1.754
4728,1.761
4729,1.801
4730,1.816
4731,1.812
4732,1.888
4733,1.899
4734,1.888
4735,1.852
4736,1.841
4737,1.837
4738,1.823
4739,1.845
4740,1.823
4741,1.812
4742,1.772
4743,1.772
4744,1.743
4745,1.769
4746,1.816
4747,1.834
4748,1.892
4749,1.906
4750,1.96
4751,1.949
4752,1.935
4753,1.892
4754,1.841
4755,1.816
4756,1.765
4757,1.754
4758,1.729
4759,1.761
4760,1.74
4761,1.798
4762,1.816
4763,1.841
4764,1.877
4765,1.852
4766,1.845
4767,1.772
4768,1.718
4769,1.678
4770,1.704
4771,1.74
4772,1.787
4773,1.874
4774,1.899
4775,1.968
4776,1.975
4777,1.957
4778,1.935
4779,1.859
4780,1.816
4781,1.761
4782,1.761
4783,1.736
4784,1.758
4785,1.783
4786,1.765
4787,1.794
4788,1.805
4789,1.826
4790,1.845
4791,1.892
4792,1.935
4793,1.931
4794,1.939
4795,1.881
4796,1.848
4797,1.783
4798,1.743
4799,1.732
4800,1.736
4801,1.776
4802,1.837
4803,1.913
4804,1.931
4805,1.964
4806,1.949
4807,1.884
4808,1.834
4809,1.765
4810,1.74
4811,1.704
4812,1.743
4813,1.725
4814,1.751
4815,1.801
4816,1.812
4817,1.819
4818,1.765
4819,1.761
4820,1.798
4821,1.852
4822,1.852
4823,1.859
4824,1.874
4825,1.848
4826,1.837
4827,1.841
4828,1.845
4829,1.863
4830,1.863
4831,1.852
4832,1.852
4833,1.837
4834,1.823
4835,1.834
4836,1.881
4837,1.881
4838,1.863
4839,1.834
4840,1.794
4841,1.769
4842,1.747
4843,1.758
4844,1.776
4845,1.845
4846,1.902
4847,1.928
4848,1.899
4849,1.852
4850,1.816
4851,1.769
4852,1.769
4853,1.83
4854,1.837
4855,1.798
4856,1.671
4857,1.443
4858,1.338
4859,1.407
4860,1.729
4861,2.206
4862,2.532
4863,2.568
4864,2.478
4865,2.355
4866,2.152
4867,1.765
4868,1.418
4869,1.168
4870,1.168
4871,1.262
4872,1.338
4873,1.479
4874,1.837
4875,2.246
4876,2.492
4877,2.492
4878,2.329
4879,2.083
4880,1.826
4881,1.628
4882,1.487
4883,1.374
4884,1.331
4885,1.349
4886,1.476
4887,1.646
4888,1.826
4889,1.957
4890,2.022
4891,2.047
4892,2.025
4893,1.996
4894,1.946
4895,1.895
4896,1.859
4897,1.848
4898,1.863
4899,1.874
4900,1.884
4901,1.913
4902,1.928
4903,1.949
4904,1.953
4905,1.935
4906,1.899
4907,1.845
4908,1.79
4909,1.736
4910,1.729
4911,1.732
4912,1.736
4913,1.74
4914,1.74
4915,1.751
4916,1.761
4917,1.776
4918,1.801
4919,1.794
4920,1.819
4921,1.863
4922,1.884
4923,1.888
4924,1.87
4925,1.841
4926,1.801
4927,1.769
4928,1.765
4929,1.808
4930,1.855
4931,1.906
4932,1.935
4933,1.924
4934,1.91
4935,1.866
4936,1.794
4937,1.732
4938,1.689
4939,1.689
4940,1.707
4941,1.732
4942,1.769
4943,1.812
4944,1.855
4945,1.855
4946,1.834
4947,1.826
4948,1.808
4949,1.801
4950,1.823
4951,1.841
4952,1.841
4953,1.845
4954,1.863
4955,1.874
4956,1.87
4957,1.87
4958,1.888
4959,1.895
4960,1.892
4961,1.892
4962,1.881
4963,1.855
4964,1.845
4965,1.841
4966,1.819
4967,1.805
4968,1.798
4969,1.801
4970,1.783
4971,1.819
4972,1.834
4973,1.845
4974,1.848
4975,1.859
4976,1.859
4977,1.834
4978,1.779
4979,1.732
4980,1.689
4981,1.696
4982,1.729
4983,1.783
4984,1.819
4985,1.826
4986,1.816
4987,1.798
4988,1.758
4989,1.772
4990,1.841
4991,2.018
4992,2.21
4993,2.177
4994,2.098
4995,1.921
4996,1.718
4997,1.552
4998,1.483
4999,1.508
5000,1.552
5001,1.573
5002,1.685
5003,1.866
5004,2.011
5005,2.119
5006,2.13
5007,2.047
5008,1.946
5009,1.837
5010,1.754
5011,1.682
5012,1.657
5013,1.682
5014,1.732
5015,1.798
5016,1.866
5017,1.892
5018,1.921
5019,1.939
5020,1.931
5021,1.924
5022,1.91
5023,1.87
5024,1.823
5025,1.787
5026,1.754
5027,1.747
5028,1.751
5029,1.776
5030,1.787
5031,1.787
5032,1.826
5033,1.855
5034,1.884
5035,1.863
5036,1.852
5037,1.808
5038,1.798
5039,1.765
5040,1.772
5041,1.772
5042,1.783
5043,1.812
5044,1.837
5045,1.841
5046,1.855
5047,1.841
5048,1.83
5049,1.819
5050,1.845
5051,1.837
5052,1.859
5053,1.863
5054,1.863
5055,1.884
5056,1.779
5057,1.884
5058,1.87
5059,1.848
5060,1.837
5061,1.812
5062,1.816
5063,1.816
5064,1.798
5065,1.798
5066,1.772
5067,1.794
5068,1.808
5069,1.819
5070,1.83
5071,1.834
5072,1.837
5073,1.816
5074,1.816
5075,1.805
5076,1.798
5077,1.794
5078,1.779
5079,1.812
5080,1.859
5081,1.921
5082,1.902
5083,1.859
5084,1.798
5085,1.754
5086,1.743
5087,1.743
5088,1.79
5089,1.841
5090,1.859
5091,1.845
5092,1.841
5093,1.841
5094,1.866
5095,1.874
5096,1.877
5097,1.855
5098,1.826
5099,1.816
5100,1.808
5101,1.798
5102,1.79
5103,1.819
5104,1.855
5105,1.852
5106,1.823
5107,1.794
5108,1.79
5109,1.805
5110,1.841
5111,1.852
5112,1.848
5113,1.863
5114,1.866
5115,1.874
5116,1.845
5117,1.776
5118,1.729
5119,1.722
5120,1.729
5121,1.776
5122,1.816
5123,1.863
5124,1.939
5125,1.96
5126,1.968
5127,1.935
5128,1.859
5129,1.834
5130,1.819
5131,1.812
5132,1.816
5133,1.816
5134,1.816
5135,1.805
5136,1.769
5137,1.776
5138,1.754
5139,1.718
5140,1.7
5141,1.711
5142,1.743
5143,1.769
5144,1.826
5145,1.888
5146,1.888
5147,1.874
5148,1.884
5149,1.87
5150,1.852
5151,1.823
5152,1.848
5153,1.848
5154,1.834
5155,1.823
5156,1.837
5157,1.884
5158,1.931
5159,1.964
5160,1.884
5161,1.798
5162,1.722
5163,1.751
5164,1.787
5165,1.794
5166,1.816
5167,1.87
5168,1.83
5169,1.826
5170,1.935
5171,1.975
5172,1.935
5173,1.859
5174,1.725
5175,1.664
5176,1.649
5177,1.707
5178,1.754
5179,1.863
5180,1.902
5181,1.91
5182,1.877
5183,1.816
5184,1.787
5185,1.758
5186,1.758
5187,1.761
5188,1.808
5189,1.848
5190,1.913
5191,1.957
5192,1.935
5193,1.881
5194,1.798
5195,1.736
5196,1.7
5197,1.7
5198,1.765
5199,1.834
5200,1.863
5201,1.819
5202,1.779
5203,1.754
5204,1.761
5205,1.772
5206,1.812
5207,1.899
5208,1.928
5209,1.751
5210,1.497
5211,1.461
5212,1.769
5213,2.228
5214,2.474
5215,2.474
5216,2.423
5217,2.275
5218,2.094
5219,1.816
5220,1.465
5221,1.241
5222,1.165
5223,1.226
5224,1.309
5225,1.512
5226,1.877
5227,2.246
5228,2.423
5229,2.391
5230,2.217
5231,2.015
5232,1.823
5233,1.678
5234,1.555
5235,1.389
5236,1.255
5237,1.313
5238,1.418
5239,1.635
5240,1.859
5241,2.018
5242,2.083
5243,2.062
5244,1.996
5245,1.895
5246,1.805
5247,1.761
5248,1.808
5249,1.906
5250,1.968
5251,1.993
5252,1.996
5253,1.982
5254,1.964
5255,1.957
5256,1.946
5257,1.946
5258,1.953
5259,1.946
5260,1.902
5261,1.826
5262,1.747
5263,1.66
5264,1.628
5265,1.602
5266,1.588
5267,1.591
5268,1.667
5269,1.725
5270,1.765
5271,1.823
5272,1.852
5273,1.863
5274,1.855
5275,1.845
5276,1.863
5277,1.881
5278,1.913
5279,1.921
5280,1.902
5281,1.913
5282,1.888
5283,1.848
5284,1.801
5285,1.776
5286,1.754
5287,1.747
5288,1.751
5289,1.769
5290,1.808
5291,1.805
5292,1.826
5293,1.83
5294,1.801
5295,1.754
5296,1.758
5297,1.772
5298,1.801
5299,1.87
5300,1.906
5301,1.939
5302,1.949
5303,1.953
5304,1.957
5305,1.946
5306,1.913
5307,1.895
5308,1.852
5309,1.783
5310,1.732
5311,1.693
5312,1.671
5313,1.704
5314,1.779
5315,1.852
5316,1.924
5317,1.971
5318,1.989
5319,1.924
5320,1.837
5321,1.769
5322,1.685
5323,1.66
5324,1.667
5325,1.696
5326,1.74
5327,1.805
5328,1.837
5329,1.863
5330,1.834
5331,1.823
5332,1.812
5333,1.808
5334,1.79
5335,1.79
5336,1.772
5337,1.776
5338,1.779
5339,1.747
5340,1.718
5341,1.812
5342,2.134
5343,2.423
5344,2.358
5345,2.206
5346,2.047
5347,1.863
5348,1.617
5349,1.461
5350,1.443
5351,1.487
5352,1.515
5353,1.584
5354,1.704
5355,1.837
5356,1.975
5357,2.054
5358,2.087
5359,2.058
5360,2.011
5361,1.949
5362,1.859
5363,1.74
5364,1.617
5365,1.552
5366,1.581
5367,1.66
5368,1.743
5369,1.841
5370,1.906
5371,1.949
5372,1.946
5373,1.874
5374,1.798
5375,1.743
5376,1.711
5377,1.729
5378,1.772
5379,1.823
5380,1.87
5381,1.888
5382,1.899
5383,1.935
5384,1.946
5385,1.949
5386,1.935
5387,1.906
5388,1.877
5389,1.826
5390,1.798
5391,1.769
5392,1.776
5393,1.801
5394,1.848
5395,1.863
5396,1.855
5397,1.83
5398,1.776
5399,1.732
5400,1.736
5401,1.794
5402,1.848
5403,1.902
5404,1.928
5405,1.921
5406,1.888
5407,1.808
5408,1.747
5409,1.718
5410,1.722
5411,1.725
5412,1.769
5413,1.776
5414,1.798
5415,1.79
5416,1.787
5417,1.798
5418,1.808
5419,1.819
5420,1.834
5421,1.855
5422,1.892
5423,1.928
5424,1.953
5425,1.946
5426,1.91
5427,1.852
5428,1.769
5429,1.718
5430,1.722
5431,1.736
5432,1.776
5433,1.816
5434,1.855
5435,1.895
5436,1.895
5437,1.884
5438,1.874
5439,1.877
5440,1.888
5441,1.902
5442,1.87
5443,1.845
5444,1.826
5445,1.798
5446,1.765
5447,1.747
5448,1.761
5449,1.776
5450,1.754
5451,1.776
5452,1.801
5453,1.79
5454,1.761
5455,1.808
5456,1.747
5457,1.559
5458,2.065
5459,1.888
5460,1.968
5461,1.924
5462,1.866
5463,1.826
5464,1.787
5465,1.772
5466,1.805
5467,1.816
5468,1.826
5469,1.826
5470,1.837
5471,1.83
5472,1.863
5473,1.892
5474,1.895
5475,1.863
5476,1.819
5477,1.787
5478,1.776
5479,1.765
5480,1.801
5481,1.837
5482,1.863
5483,1.87
5484,1.866
5485,1.863
5486,1.852
5487,1.812
5488,1.801
5489,1.79
5490,1.779
5491,1.801
5492,1.816
5493,1.823
5494,1.794
5495,1.747
5496,1.729
5497,1.736
5498,1.761
5499,1.819
5500,1.881
5501,1.939
5502,1.978
5503,1.975
5504,1.946
5505,1.892
5506,1.826
5507,1.776
5508,1.743
5509,1.736
5510,1.751
5511,1.787
5512,1.826
5513,1.863
5514,1.874
5515,1.874
5516,1.87
5517,1.859
5518,1.834
5519,1.798
5520,1.783
5521,1.779
5522,1.794
5523,1.812
5524,1.837
5525,1.888
5526,1.928
5527,1.928
5528,1.902
5529,1.859
5530,1.812
5531,1.794
5532,1.783
5533,1.794
5534,1.79
5535,1.801
5536,1.79
5537,1.776
5538,1.765
5539,1.743
5540,1.714
5541,1.704
5542,1.7
5543,1.711
5544,1.743
5545,1.826
5546,1.906
5547,1.953
5548,1.964
5549,1.942
5550,1.906
5551,1.779
5552,1.534
5553,1.374
5554,1.49
5555,1.874
5556,2.261
5557,2.525
5558,2.528
5559,2.441
5560,2.271
5561,1.942
5562,1.559
5563,1.306
5564,1.302
5565,1.468
5566,1.667
5567,1.787
5568,1.779
5569,1.7
5570,1.66
5571,1.761
5572,1.96
5573,2.13
5574,2.105
5575,1.928
5576,1.722
5577,1.581
5578,1.541
5579,1.57
5580,1.646
5581,1.707
5582,1.783
5583,1.863
5584,1.939
5585,1.971
5586,1.953
5587,1.921
5588,1.87
5589,1.841
5590,1.834
5591,1.859
5592,1.899
5593,1.935
5594,1.953
5595,1.971
5596,1.978
5597,1.96
5598,1.946
5599,1.928
5600,1.895
5601,1.852
5602,1.819
5603,1.772
5604,1.718
5605,1.689
5606,1.675
5607,1.667
5608,1.671
5609,1.685
5610,1.704
5611,1.718
5612,1.754
5613,1.801
5614,1.816
5615,1.816
5616,1.823
5617,1.83
5618,1.852
5619,1.895
5620,1.935
5621,1.975
5622,1.971
5623,1.964
5624,1.953
5625,1.921
5626,1.881
5627,1.837
5628,1.812
5629,1.776
5630,1.747
5631,1.729
5632,1.722
5633,1.714
5634,1.725
5635,1.743
5636,1.758
5637,1.765
5638,1.772
5639,1.794
5640,1.819
5641,1.841
5642,1.855
5643,1.874
5644,1.863
5645,1.855
5646,1.837
5647,1.816
5648,1.794
5649,1.79
5650,1.805
5651,1.841
5652,1.888
5653,1.946
5654,1.968
5655,1.949
5656,1.917
5657,1.866
5658,1.816
5659,1.79
5660,1.783
5661,1.787
5662,1.823
5663,1.859
5664,1.902
5665,1.913
5666,1.902
5667,1.87
5668,1.816
5669,1.758
5670,1.714
5671,1.696
5672,1.711
5673,1.747
5674,1.794
5675,1.826
5676,1.845
5677,1.826
5678,1.783
5679,1.747
5680,1.754
5681,1.725
5682,1.638
5683,1.631
5684,1.808
5685,2.134
5686,2.304
5687,2.239
5688,2.145
5689,2.0
5690,1.816
5691,1.7
5692,1.664
5693,1.66
5694,1.631
5695,1.62
5696,1.649
5697,1.696
5698,1.718
5699,1.743
5700,1.816
5701,1.877
5702,1.924
5703,1.942
5704,1.91
5705,1.87
5706,1.845
5707,1.837
5708,1.834
5709,1.834
5710,1.834
5711,1.826
5712,1.801
5713,1.798
5714,1.812
5715,1.805
5716,1.812
5717,1.841
5718,1.881
5719,1.888
5720,1.877
5721,1.863
5722,1.841
5723,1.798
5724,1.736
5725,1.693
5726,1.707
5727,1.769
5728,1.841
5729,1.917
5730,1.935
5731,1.931
5732,1.899
5733,1.863
5734,1.826
5735,1.801
5736,1.779
5737,1.79
5738,1.783
5739,1.823
5740,1.87
5741,1.895
5742,1.888
5743,1.841
5744,1.794
5745,1.751
5746,1.743
5747,1.747
5748,1.845
5749,1.935
5750,1.989
5751,1.993
5752,1.917
5753,1.834
5754,1.779
5755,1.725
5756,1.711
5757,1.696
5758,1.718
5759,1.751
5760,1.783
5761,1.816
5762,1.837
5763,1.837
5764,1.834
5765,1.834
5766,1.826
5767,1.841
5768,1.863
5769,1.888
5770,1.902
5771,1.931
5772,1.939
5773,1.881
5774,1.805
5775,1.754
5776,1.718
5777,1.711
5778,1.743
5779,1.776
5780,1.848
5781,1.899
5782,1.892
5783,1.877
5784,1.83
5785,1.787
5786,1.725
5787,1.685
5788,1.678
5789,1.7
5790,1.772
5791,1.877
5792,1.975
5793,2.004
5794,2.004
5795,1.96
5796,1.913
5797,1.855
5798,1.808
5799,1.805
5800,1.79
5801,1.772
5802,1.772
5803,1.787
5804,1.834
5805,1.888
5806,1.888
5807,1.884
5808,1.855
5809,1.823
5810,1.805
5811,1.787
5812,1.801
5813,1.765
5814,1.725
5815,1.711
5816,1.714
5817,1.718
5818,1.772
5819,1.812
5820,1.87
5821,1.906
5822,1.921
5823,1.921
5824,1.906
5825,1.888
5826,1.87
5827,1.834
5828,1.801
5829,1.787
5830,1.783
5831,1.816
5832,1.848
5833,1.881
5834,1.895
5835,1.881
5836,1.855
5837,1.866
5838,1.845
5839,1.834
5840,1.823
5841,1.812
5842,1.823
5843,1.823
5844,1.808
5845,1.776
5846,1.747
5847,1.761
5848,1.798
5849,1.798
5850,1.823
5851,1.834
5852,1.808
5853,1.812
5854,1.794
5855,1.772
5856,1.765
5857,1.798
5858,1.826
5859,1.877
5860,1.906
5861,1.881
5862,1.823
5863,1.783
5864,1.761
5865,1.772
5866,1.812
5867,1.874
5868,1.91
5869,1.921
5870,1.91
5871,1.852
5872,1.776
5873,1.714
5874,1.718
5875,1.779
5876,1.848
5877,1.899
5878,1.935
5879,1.924
5880,1.964
5881,1.968
5882,1.931
5883,1.859
5884,1.776
5885,1.638
5886,1.353
5887,1.298
5888,1.371
5889,1.573
5890,2.054
5891,2.459
5892,2.593
5893,2.525
5894,2.387
5895,2.105
5896,1.732
5897,1.364
5898,1.19
5899,1.215
5900,1.364
5901,1.548
5902,1.758
5903,2.007
5904,2.239
5905,2.344
5906,2.279
5907,2.119
5908,1.902
5909,1.689
5910,1.541
5911,1.461
5912,1.403
5913,1.414
5914,1.501
5915,1.646
5916,1.776
5917,1.877
5918,1.939
5919,1.971
5920,1.986
5921,1.975
5922,1.942
5923,1.917
5924,1.928
5925,1.928
5926,1.928
5927,1.935
5928,1.949
5929,1.957
5930,1.935
5931,1.899
5932,1.859
5933,1.823
5934,1.798
5935,1.783
5936,1.765
5937,1.758
5938,1.743
5939,1.722
5940,1.707
5941,1.722
5942,1.747
5943,1.776
5944,1.794
5945,1.819
5946,1.841
5947,1.848
5948,1.877
5949,1.906
5950,1.913
5951,1.895
5952,1.859
5953,1.819
5954,1.808
5955,1.812
5956,1.845
5957,1.845
5958,1.841
5959,1.812
5960,1.776
5961,1.751
5962,1.751
5963,1.743
5964,1.761
5965,1.798
5966,1.834
5967,1.852
5968,1.826
5969,1.808
5970,1.798
5971,1.798
5972,1.79
5973,1.779
5974,1.779
5975,1.808
5976,1.841
5977,1.888
5978,1.935
5979,1.949
5980,1.946
5981,1.931
5982,1.884
5983,1.848
5984,1.841
5985,1.863
5986,1.877
5987,1.892
5988,1.906
5989,1.91
5990,1.877
5991,1.823
5992,1.761
5993,1.704
5994,1.671
5995,1.685
5996,1.729
5997,1.776
5998,1.819
5999,1.837
6000,1.808
6001,1.787
6002,1.761
6003,1.74
6004,1.747
6005,1.761
6006,1.801
6007,1.845
6008,1.892
6009,1.931
6010,1.957
6011,1.942
6012,1.895
6013,1.841
6014,1.805
6015,1.779
6016,1.74
6017,1.754
6018,1.761
6019,1.776
6020,1.816
6021,1.913
6022,2.072
6023,2.221
6024,2.148
6025,2.025
6026,1.866
6027,1.635
6028,1.432
6029,1.371
6030,1.476
6031,1.66
6032,1.779
6033,1.888
6034,2.025
6035,2.105
6036,2.105
6037,2.007
6038,1.859
6039,1.718
6040,1.631
6041,1.599
6042,1.631
6043,1.707
6044,1.794
6045,1.852
6046,1.895
6047,1.917
6048,1.917
6049,1.91
6050,1.906
6051,1.895
6052,1.881
6053,1.866
6054,1.841
6055,1.816
6056,1.83
6057,1.852
6058,1.852
6059,1.826
6060,1.83
6061,1.819
6062,1.812
6063,1.816
6064,1.801
6065,1.769
6066,1.736
6067,1.707
6068,1.704
6069,1.732
6070,1.754
6071,1.783
6072,1.812
6073,1.837
6074,1.863
6075,1.884
6076,1.902
6077,1.921
6078,1.935
6079,1.924
6080,1.899
6081,1.881
6082,1.881
6083,1.87
6084,1.834
6085,1.79
6086,1.747
6087,1.722
6088,1.74
6089,1.776
6090,1.79
6091,1.798
6092,1.801
6093,1.805
6094,1.812
6095,1.826
6096,1.87
6097,1.899
6098,1.902
6099,1.928
6100,1.928
6101,1.895
6102,1.841
6103,1.805
6104,1.783
6105,1.772
6106,1.754
6107,1.754
6108,1.79
6109,1.823
6110,1.852
6111,1.852
6112,1.837
6113,1.816
6114,1.805
6115,1.798
6116,1.816
6117,1.823
6118,1.848
6119,1.859
6120,1.826
6121,1.798
6122,1.798
6123,1.808
6124,1.826
6125,1.841
6126,1.834
6127,1.812
6128,1.783
6129,1.79
6130,1.808
6131,1.808
6132,1.837
6133,1.877
6134,1.917
6135,1.906
6136,1.892
6137,1.863
6138,1.801
6139,1.776
6140,1.801
6141,1.798
6142,1.823
6143,1.841
6144,1.852
6145,1.841
6146,1.808
6147,1.761
6148,1.729
6149,1.736
6150,1.779
6151,1.823
6152,1.837
6153,1.863
6154,1.892
6155,1.906
6156,1.895
6157,1.881
6158,1.859
6159,1.812
6160,1.765
6161,1.751
6162,1.765
6163,1.794
6164,1.863
6165,1.91
6166,1.931
6167,1.931
6168,1.928
6169,1.91
6170,1.863
6171,1.834
6172,1.812
6173,1.779
6174,1.718
6175,1.696
6176,1.682
6177,1.714
6178,1.761
6179,1.819
6180,1.906
6181,1.971
6182,1.942
6183,1.881
6184,1.794
6185,1.714
6186,1.696
6187,1.689
6188,1.667
6189,1.7
6190,1.751
6191,1.823
6192,1.877
6193,1.924
6194,1.946
6195,1.946
6196,1.924
6197,1.895
6198,1.884
6199,1.884
6200,1.855
6201,1.823
6202,1.808
6203,1.783
6204,1.779
6205,1.779
6206,1.754
6207,1.772
6208,1.823
6209,1.87
6210,1.892
6211,1.906
6212,1.899
6213,1.884
6214,1.866
6215,1.874
6216,1.906
6217,1.902
6218,1.917
6219,1.863
6220,1.747
6221,1.541
6222,1.241
6223,1.317
6224,1.392
6225,1.794
6226,2.235
6227,2.514
6228,2.539
6229,2.423
6230,2.253
6231,1.96
6232,1.566
6233,1.248
6234,1.154
6235,1.248
6236,1.338
6237,1.552
6238,1.834
6239,2.134
6240,2.333
6241,2.373
6242,2.261
6243,2.109
6244,1.924
6245,1.743
6246,1.57
6247,1.418
6248,1.353
6249,1.389
6250,1.53
6251,1.704
6252,1.877
6253,1.96
6254,1.968
6255,1.931
6256,1.895
6257,1.855
6258,1.841
6259,1.877
6260,1.91
6261,1.946
6262,1.964
6263,1.968
6264,1.964
6265,1.964
6266,1.975
6267,2.0
6268,2.011
6269,1.982
6270,1.928
6271,1.837
6272,1.769
6273,1.718
6274,1.675
6275,1.642
6276,1.646
6277,1.667
6278,1.678
6279,1.685
6280,1.696
6281,1.725
6282,1.751
6283,1.798
6284,1.834
6285,1.863
6286,1.881
6287,1.855
6288,1.819
6289,1.812
6290,1.805
6291,1.83
6292,1.83
6293,1.837
6294,1.881
6295,1.917
6296,1.946
6297,1.96
6298,1.946
6299,1.931
6300,1.895
6301,1.823
6302,1.776
6303,1.747
6304,1.729
6305,1.729
6306,1.747
6307,1.747
6308,1.787
6309,1.83
6310,1.855
6311,1.881
6312,1.884
6313,1.877
6314,1.855
6315,1.83
6316,1.798
6317,1.779
6318,1.787
6319,1.776
6320,1.794
6321,1.805
6322,1.826
6323,1.859
6324,1.884
6325,1.877
6326,1.884
6327,1.874
6328,1.852
6329,1.823
6330,1.801
6331,1.79
6332,1.787
6333,1.79
6334,1.808
6335,1.798
6336,1.79
6337,1.794
6338,1.798
6339,1.816
6340,1.841
6341,1.855
6342,1.895
6343,1.931
6344,1.96
6345,1.968
6346,1.924
6347,1.841
6348,1.761
6349,1.675
6350,1.613
6351,1.599
6352,1.613
6353,1.675
6354,1.761
6355,1.852
6356,2.011
6357,2.105
6358,2.253
6359,2.279
6360,2.127
6361,1.939
6362,1.642
6363,1.407
6364,1.338
6365,1.432
6366,1.595
6367,1.714
6368,1.819
6369,1.993
6370,2.127
6371,2.174
6372,2.116
6373,1.968
6374,1.801
6375,1.667
6376,1.606
6377,1.609
6378,1.667
6379,1.729
6380,1.805
6381,1.855
6382,1.87
6383,1.866
6384,1.859
6385,1.855
6386,1.841
6387,1.841
6388,1.859
6389,1.859
6390,1.823
6391,1.812
6392,1.826
6393,1.863
6394,1.899
6395,1.913
6396,1.91
6397,1.899
6398,1.863
6399,1.805
6400,1.722
6401,1.696
6402,1.7
6403,1.704
6404,1.747
6405,1.823
6406,1.884
6407,1.939
6408,1.953
6409,1.957
6410,1.949
6411,1.946
6412,1.906
6413,1.845
6414,1.772
6415,1.704
6416,1.696
6417,1.693
6418,1.693
6419,1.725
6420,1.812
6421,1.888
6422,1.895
6423,1.895
6424,1.87
6425,1.834
6426,1.772
6427,1.736
6428,1.776
6429,1.805
6430,1.845
6431,1.902
6432,1.906
6433,1.855
6434,1.798
6435,1.769
6436,1.765
6437,1.779
6438,1.805
6439,1.826
6440,1.852
6441,1.874
6442,1.895
6443,1.899
6444,1.892
6445,1.892
6446,1.881
6447,1.884
6448,1.874
6449,1.852
6450,1.826
6451,1.79
6452,1.751
6453,1.743
6454,1.758
6455,1.765
6456,1.808
6457,1.874
6458,1.866
6459,1.801
6460,1.758
6461,1.74
6462,1.776
6463,1.808
6464,1.845
6465,1.877
6466,1.877
6467,1.859
6468,1.83
6469,1.83
6470,1.83
6471,1.819
6472,1.779
6473,1.758
6474,1.751
6475,1.805
6476,1.841
6477,1.899
6478,1.946
6479,1.953
6480,1.913
6481,1.877
6482,1.848
6483,1.816
6484,1.761
6485,1.722
6486,1.74
6487,1.769
6488,1.83
6489,1.888
6490,1.917
6491,1.921
6492,1.866
6493,1.812
6494,1.787
6495,1.776
6496,1.736
6497,1.765
6498,1.805
6499,1.819
6500,1.837
6501,1.859
6502,1.895
6503,1.888
6504,1.87
6505,1.808
6506,1.754
6507,1.754
6508,1.79
6509,1.826
6510,1.83
6511,1.859
6512,1.91
6513,1.902
6514,1.848
6515,1.79
6516,1.747
6517,1.696
6518,1.685
6519,1.736
6520,1.812
6521,1.877
6522,1.874
6523,1.892
6524,1.899
6525,1.866
6526,1.805
6527,1.801
6528,1.805
6529,1.801
6530,1.845
6531,1.852
6532,1.837
6533,1.841
6534,1.848
6535,1.837
6536,1.848
6537,1.855
6538,1.848
6539,1.841
6540,1.848
6541,1.769
6542,1.74
6543,1.761
6544,1.79
6545,1.823
6546,1.881
6547,1.877
6548,1.874
6549,1.877
6550,1.902
6551,1.877
6552,1.808
6553,1.732
6554,1.667
6555,1.617
6556,1.385
6557,1.367
6558,1.548
6559,1.968
6560,2.326
6561,2.539
6562,2.514
6563,2.412
6564,2.282
6565,2.054
6566,1.754
6567,1.501
6568,1.392
6569,1.335
6570,1.237
6571,1.273
6572,1.349
6573,1.505
6574,1.899
6575,2.318
6576,2.55
6577,2.459
6578,2.232
6579,1.942
6580,1.743
6581,1.609
6582,1.505
6583,1.425
6584,1.382
6585,1.447
6586,1.497
6587,1.624
6588,1.982
6589,2.134
6590,2.119
6591,1.939
6592,1.783
6593,1.7
6594,1.711
6595,1.769
6596,1.859
6597,1.946
6598,2.007
6599,2.029
6600,2.033
6601,2.022
6602,2.025
6603,2.018
6604,2.0
6605,1.982
6606,1.931
6607,1.877
6608,1.805
6609,1.729
6610,1.678
6611,1.638
6612,1.657
6613,1.693
6614,1.74
6615,1.772
6616,1.787
6617,1.761
6618,1.765
6619,1.787
6620,1.79
6621,1.823
6622,1.855
6623,1.874
6624,1.866
6625,1.863
6626,1.855
6627,1.845
6628,1.826
6629,1.823
6630,1.808
6631,1.794
6632,1.758
6633,1.729
6634,1.736
6635,1.769
6636,1.787
6637,1.805
6638,1.798
6639,1.765
6640,1.765
6641,1.783
6642,1.805
6643,1.819
6644,1.834
6645,1.823
6646,1.816
6647,1.837
6648,1.888
6649,1.917
6650,1.96
6651,1.993
6652,2.015
6653,2.007
6654,1.968
6655,1.928
6656,1.877
6657,1.834
6658,1.812
6659,1.83
6660,1.823
6661,1.819
6662,1.798
6663,1.801
6664,1.783
6665,1.758
6666,1.729
6667,1.747
6668,1.754
6669,1.801
6670,1.812
6671,1.798
6672,1.758
6673,1.722
6674,1.685
6675,1.671
6676,1.725
6677,1.79
6678,1.812
6679,1.855
6680,1.87
6681,1.845
6682,1.823
6683,1.816
6684,1.801
6685,1.819
6686,1.826
6687,1.816
6688,1.725
6689,1.812
6690,2.094
6691,2.412
6692,2.355
6693,2.185
6694,2.069
6695,1.881
6696,1.664
6697,1.541
6698,1.494
6699,1.476
6700,1.505
6701,1.631
6702,1.783
6703,1.852
6704,1.906
6705,1.96
6706,1.982
6707,1.946
6708,1.895
6709,1.841
6710,1.772
6711,1.736
6712,1.693
6713,1.675
6714,1.689
6715,1.772
6716,1.852
6717,1.874
6718,1.83
6719,1.765
6720,1.732
6721,1.765
6722,1.816
6723,1.895
6724,1.939
6725,1.931
6726,1.913
6727,1.892
6728,1.855
6729,1.837
6730,1.848
6731,1.863
6732,1.888
6733,1.899
6734,1.881
6735,1.863
6736,1.834
6737,1.819
6738,1.798
6739,1.776
6740,1.758
6741,1.769
6742,1.787
6743,1.787
6744,1.787
6745,1.772
6746,1.776
6747,1.772
6748,1.801
6749,1.816
6750,1.834
6751,1.855
6752,1.888
6753,1.91
6754,1.906
6755,1.826
6756,1.772
6757,1.718
6758,1.718
6759,1.769
6760,1.855
6761,1.935
6762,2.0
6763,2.011
6764,1.931
6765,1.812
6766,1.729
6767,1.693
6768,1.714
6769,1.783
6770,1.848
6771,1.888
6772,1.892
6773,1.877
6774,1.837
6775,1.772
6776,1.729
6777,1.722
6778,1.751
6779,1.787
6780,1.837
6781,1.895
6782,1.913
6783,1.888
6784,1.845
6785,1.819
6786,1.805
6787,1.823
6788,1.863
6789,1.855
6790,1.79
6791,1.754
6792,1.751
6793,1.769
6794,1.787
6795,1.83
6796,1.863
6797,1.859
6798,1.834
6799,1.826
6800,1.841
6801,1.87
6802,1.917
6803,1.921
6804,1.899
6805,1.884
6806,1.881
6807,1.881
6808,1.845
6809,1.769
6810,1.736
6811,1.718
6812,1.704
6813,1.74
6814,1.772
6815,1.823
6816,1.834
6817,1.834
6818,1.826
6819,1.819
6820,1.812
6821,1.805
6822,1.794
6823,1.808
6824,1.834
6825,1.855
6826,1.906
6827,1.968
6828,1.993
6829,1.957
6830,1.892
6831,1.826
6832,1.769
6833,1.74
6834,1.732
6835,1.79
6836,1.841
6837,1.866
6838,1.852
6839,1.819
6840,1.779
6841,1.74
6842,1.736
6843,1.761
6844,1.79
6845,1.772
6846,1.732
6847,1.696
6848,1.711
6849,1.761
6850,1.826
6851,1.892
6852,1.939
6853,1.953
6854,1.942
6855,1.924
6856,1.921
6857,1.921
6858,1.888
6859,1.729
6860,1.986
6861,2.062
6862,1.841
6863,1.678
6864,1.584
6865,1.664
6866,1.769
6867,1.866
6868,1.957
6869,2.015
6870,1.982
6871,1.91
6872,1.837
6873,1.772
6874,1.751
6875,1.751
6876,1.769
6877,1.794
6878,1.823
6879,1.845
6880,1.877
6881,1.895
6882,1.888
6883,1.848
6884,1.779
6885,1.696
6886,1.497
6887,1.28
6888,1.36
6889,1.425
6890,1.638
6891,2.022
6892,2.347
6893,2.568
6894,2.561
6895,2.416
6896,2.141
6897,1.812
6898,1.512
6899,1.36
6900,1.385
6901,1.512
6902,1.667
6903,1.79
6904,1.798
6905,1.732
6906,1.722
6907,1.83
6908,1.986
6909,2.13
6910,2.127
6911,1.993
6912,1.801
6913,1.689
6914,1.696
6915,1.779
6916,1.826
6917,1.801
6918,1.747
6919,1.725
6920,1.722
6921,1.725
6922,1.729
6923,1.736
6924,1.758
6925,1.787
6926,1.823
6927,1.892
6928,1.975
6929,2.051
6930,2.072
6931,2.054
6932,2.015
6933,1.968
6934,1.931
6935,1.91
6936,1.888
6937,1.841
6938,1.798
6939,1.751
6940,1.722
6941,1.689
6942,1.66
6943,1.66
6944,1.689
6945,1.747
6946,1.808
6947,1.866
6948,1.881
6949,1.874
6950,1.845
6951,1.819
6952,1.805
6953,1.805
6954,1.794
6955,1.801
6956,1.779
6957,1.776
6958,1.794
6959,1.805
6960,1.805
6961,1.779
6962,1.79
6963,1.798
6964,1.794
6965,1.783
6966,1.805
6967,1.87
6968,1.942
6969,1.982
6970,1.957
6971,1.892
6972,1.826
6973,1.798
6974,1.808
6975,1.837
6976,1.877
6977,1.899
6978,1.892
6979,1.859
6980,1.816
6981,1.74
6982,1.693
6983,1.7
6984,1.729
6985,1.772
6986,1.841
6987,1.874
6988,1.859
6989,1.808
6990,1.732
6991,1.696
6992,1.74
6993,1.837
6994,1.946
6995,1.989
6996,2.0
6997,2.015
6998,1.939
6999,1.812
7000,1.953
7001,2.076
7002,1.96
7003,1.707
7004,1.62
7005,1.602
7006,1.675
7007,1.7
7008,1.562
7009,1.66
7010,1.826
7011,1.928
7012,1.917
7013,1.993
7014,1.928
7015,1.942
7016,1.816
7017,1.696
7018,1.682
7019,1.682
7020,1.664
7021,1.693
7022,2.159
7023,2.333
7024,2.315
7025,2.112
7026,1.953
7027,1.776
7028,1.678
7029,1.562
7030,1.501
7031,1.508
7032,1.555
7033,1.581
7034,1.613
7035,1.787
7036,1.949
7037,2.065
7038,1.964
7039,1.971
7040,2.004
7041,2.022
7042,1.881
7043,1.696
7044,1.591
7045,1.606
7046,1.642
7047,1.523
7048,1.649
7049,1.783
7050,1.978
7051,1.978
7052,1.971
7053,1.993
7054,2.076
7055,2.072
7056,1.881
7057,1.881
7058,1.946
7059,1.982
7060,1.794
7061,1.732
7062,1.707
7063,1.758
7064,1.79
7065,1.848
7066,1.924
7067,2.007
7068,1.996
7069,1.935
7070,1.852
7071,1.787
7072,1.765
7073,1.476
7074,1.414
7075,1.555
7076,1.714
7077,1.808
7078,1.888
7079,1.841
7080,1.863
7081,1.823
7082,1.649
7083,1.732
7084,1.845
7085,1.881
7086,1.732
7087,1.754
7088,1.754
7089,1.812
7090,1.874
7091,2.072
7092,2.123
7093,2.145
7094,1.993
7095,1.714
7096,1.779
7097,1.899
7098,1.91
7099,1.704
7100,1.736
7101,1.808
7102,1.881
7103,1.812
7104,1.772
7105,1.953
7106,2.072
7107,2.054
7108,1.812
7109,1.779
7110,1.823
7111,1.779
7112,1.675
7113,1.649
7114,1.729
7115,1.769
7116,1.79
7117,1.772
7118,1.787
7119,1.808
7120,1.805
7121,1.769
7122,1.801
7123,1.852
7124,1.823
7125,1.769
7126,1.794
7127,1.823
7128,1.884
7129,1.935
7130,1.899
7131,1.877
7132,1.855
7133,1.841
7134,1.801
7135,1.834
7136,1.83
7137,1.826
7138,1.819
7139,1.779
7140,1.718
7141,1.711
7142,1.787
7143,1.808
7144,1.848
7145,1.826
7146,1.826
7147,1.787
7148,1.798
7149,1.798
7150,1.783
7151,1.866
7152,1.946
7153,1.986
7154,1.928
7155,1.888
7156,1.855
7157,1.761
7158,1.722
7159,1.816
7160,2.0
7161,2.058
7162,1.989
7163,2.076
7164,2.177
7165,1.881
7166,1.508
7167,1.515
7168,1.591
7169,1.599
7170,1.566
7171,1.57
7172,1.754
7173,1.899
7174,1.96
7175,1.96
7176,1.928
7177,1.794
7178,1.685
7179,1.642
7180,1.776
7181,1.848
7182,1.87
7183,1.913
7184,1.975
7185,1.834
7186,1.758
7187,1.779
7188,1.946
7189,1.939
7190,1.895
7191,1.913
7192,2.047
7193,1.942
7194,1.787
7195,1.696
7196,1.765
7197,1.74
7198,1.736
7199,1.805
7200,1.96
7201,1.971
7202,1.957
7203,1.921
7204,1.957
7205,1.881
7206,1.722
7207,1.382
7208,1.251
7209,1.338
7210,1.454
7211,1.877
7212,2.257
7213,2.463
7214,2.488
7215,2.358
7216,2.119
7217,1.845
7218,1.573
7219,1.36
7220,1.306
7221,1.338
7222,1.392
7223,1.57
7224,1.91
7225,2.336
7226,2.535
7227,2.416
7228,2.13
7229,1.805
7230,1.505
7231,1.353
7232,1.392
7233,1.53
7234,1.573
7235,1.62
7236,1.769
7237,1.996
7238,2.076
7239,2.051
7240,2.033
7241,1.978
7242,1.83
7243,1.722
7244,1.714
7245,1.751
7246,1.725
7247,1.743
7248,1.877
7249,2.04
7250,2.065
7251,2.051
7252,2.08
7253,2.087
7254,1.996
7255,1.87
7256,1.83
7257,1.798
7258,1.682
7259,1.635
7260,1.704
7261,1.751
7262,1.685
7263,1.635
7264,1.765
7265,1.884
7266,1.845
7267,1.736
7268,1.682
7269,1.718
7270,1.725
7271,1.722
7272,1.83
7273,1.91
7274,1.863
7275,1.794
7276,1.732
7277,1.761
7278,1.779
7279,1.779
7280,1.978
7281,2.109
7282,2.033
7283,1.91
7284,1.772
7285,1.779
7286,1.758
7287,1.725
7288,1.964
7289,2.112
7290,2.007
7291,1.87
7292,1.664
7293,1.62
7294,1.617
7295,1.628
7296,1.866
7297,2.105
7298,2.051
7299,1.928
7300,1.725
7301,1.631
7302,1.638
7303,1.653
7304,1.855
7305,2.087
7306,1.986
7307,1.837
7308,1.7
7309,1.635
7310,1.714
7311,1.794
7312,1.986
7313,2.217
7314,2.076
7315,1.845
7316,1.628
7317,1.414
7318,1.472
7319,1.646
7320,1.877
7321,2.261
7322,2.235
7323,1.993
7324,1.794
7325,1.472
7326,1.382
7327,1.555
7328,1.787
7329,2.145
7330,2.297
7331,2.112
7332,1.845
7333,1.534
7334,1.45
7335,1.53
7336,1.675
7337,2.011
7338,2.21
7339,2.109
7340,1.942
7341,1.671
7342,1.494
7343,1.544
7344,1.736
7345,2.13
7346,2.488
7347,2.398
7348,2.17
7349,1.939
7350,1.631
7351,1.447
7352,1.432
7353,1.534
7354,1.826
7355,1.964
7356,1.957
7357,1.848
7358,1.606
7359,1.487
7360,1.526
7361,1.573
7362,1.812
7363,1.982
7364,1.953
7365,1.863
7366,1.682
7367,1.552
7368,1.667
7369,1.826
7370,2.051
7371,2.282
7372,2.228
7373,2.058
7374,1.801
7375,1.526
7376,1.526
7377,1.696
7378,1.866
7379,2.156
7380,2.228
7381,2.098
7382,1.899
7383,1.613
7384,1.494
7385,1.577
7386,1.693
7387,1.971
7388,2.134
7389,2.047
7390,1.91
7391,1.696
7392,1.573
7393,1.609
7394,1.678
7395,1.877
7396,2.094
7397,2.051
7398,1.928
7399,1.747
7400,1.523
7401,1.479
7402,1.628
7403,1.848
7404,2.029
7405,2.105
7406,1.989
7407,1.852
7408,1.783
7409,1.769
7410,1.754
7411,1.722
7412,1.729
7413,1.761
7414,1.754
7415,1.798
7416,1.877
7417,1.888
7418,1.874
7419,1.855
7420,1.935
7421,1.881
7422,1.801
7423,1.718
7424,1.74
7425,1.794
7426,1.779
7427,1.826
7428,1.845
7429,1.877
7430,1.942
7431,1.946
7432,1.939
7433,1.892
7434,1.823
7435,1.801
7436,1.779
7437,1.805
7438,1.866
7439,1.855
7440,1.863
7441,1.841
7442,1.794
7443,1.779
7444,1.783
7445,1.805
7446,1.87
7447,1.874
7448,1.87
7449,1.852
7450,1.805
7451,1.758
7452,1.729
7453,1.696
7454,1.696
7455,1.74
7456,1.772
7457,1.805
7458,1.83
7459,1.83
7460,1.816
7461,1.826
7462,1.841
7463,1.859
7464,1.87
7465,1.859
7466,1.855
7467,1.819
7468,1.798
7469,1.779
7470,1.787
7471,1.808
7472,1.834
7473,1.874
7474,1.899
7475,1.91
7476,1.913
7477,1.906
7478,1.906
7479,1.899
7480,1.87
7481,1.841
7482,1.798
7483,1.79
7484,1.805
7485,1.83
7486,1.845
7487,1.848
7488,1.841
7489,1.816
7490,1.776
7491,1.729
7492,1.707
7493,1.682
7494,1.704
7495,1.761
7496,1.819
7497,1.892
7498,1.946
7499,1.968
7500,1.957
7501,1.939
7502,1.902
7503,1.859
7504,1.816
7505,1.794
7506,1.79
7507,1.779
7508,1.769
7509,1.79
7510,1.776
7511,1.769
7512,1.776
7513,1.798
7514,1.816
7515,1.837
7516,1.855
7517,1.863
7518,1.859
7519,1.837
7520,1.808
7521,1.776
7522,1.779
7523,1.794
7524,1.841
7525,1.845
7526,1.823
7527,1.776
7528,1.638
7529,1.382
7530,1.374
7531,1.439
7532,1.816
7533,2.289
7534,2.564
7535,2.608
7536,2.492
7537,2.264
7538,1.917
7539,1.581
7540,1.421
7541,1.411
7542,1.378
7543,1.374
7544,1.472
7545,1.628
7546,1.957
7547,2.344
7548,2.546
7549,2.488
7550,2.275
7551,1.892
7552,1.497
7553,1.277
7554,1.302
7555,1.411
7556,1.552
7557,1.707
7558,1.801
7559,1.837
7560,1.884
7561,1.913
7562,1.881
7563,1.841
7564,1.845
7565,1.841
7566,1.841
7567,1.863
7568,1.859
7569,1.845
7570,1.848
7571,1.874
7572,1.902
7573,1.924
7574,1.942
7575,1.957
7576,1.949
7577,1.913
7578,1.87
7579,1.837
7580,1.805
7581,1.805
7582,1.812
7583,1.812
7584,1.823
7585,1.834
7586,1.834
7587,1.83
7588,1.808
7589,1.779
7590,1.74
7591,1.736
7592,1.743
7593,1.751
7594,1.758
7595,1.751
7596,1.747
7597,1.751
7598,1.765
7599,1.776
7600,1.794
7601,1.79
7602,1.819
7603,1.848
7604,1.874
7605,1.892
7606,1.877
7607,1.877
7608,1.917
7609,1.888
7610,1.761
7611,1.816
7612,1.935
7613,1.892
7614,1.736
7615,1.747
7616,1.783
7617,1.787
7618,1.816
7619,1.978
7620,1.982
7621,1.888
7622,1.848
7623,1.949
7624,1.91
7625,1.808
7626,1.819
7627,1.957
7628,1.899
7629,1.754
7630,1.7
7631,1.783
7632,1.747
7633,1.693
7634,1.729
7635,1.834
7636,1.801
7637,1.736
7638,1.769
7639,1.87
7640,1.845
7641,1.794
7642,1.845
7643,1.931
7644,1.848
7645,1.783
7646,1.845
7647,1.924
7648,1.863
7649,1.798
7650,1.819
7651,1.732
7652,1.693
7653,1.895
7654,1.982
7655,1.924
7656,1.765
7657,1.664
7658,1.725
7659,1.779
7660,1.769
7661,1.79
7662,1.816
7663,1.826
7664,1.79
7665,1.747
7666,1.772
7667,1.96
7668,2.206
7669,2.127
7670,2.065
7671,2.105
7672,1.982
7673,1.79
7674,1.714
7675,1.689
7676,1.671
7677,1.642
7678,1.689
7679,1.718
7680,1.74
7681,1.751
7682,1.751
7683,1.743
7684,1.769
7685,1.779
7686,1.798
7687,1.819
7688,1.805
7689,1.801
7690,1.801
7691,1.837
7692,1.946
7693,2.022
7694,2.04
7695,1.964
7696,1.826
7697,1.783
7698,1.946
7699,1.978
7700,1.765
7701,1.732
7702,1.801
7703,1.863
7704,1.819
7705,1.581
7706,1.483
7707,1.552
7708,1.779
7709,1.83
7710,1.794
7711,1.732
7712,1.859
7713,1.895
7714,1.841
7715,1.834
7716,1.982
7717,2.112
7718,2.029
7719,1.935
7720,1.924
7721,2.0
7722,1.935
7723,1.837
7724,1.758
7725,1.845
7726,1.881
7727,1.787
7728,1.722
7729,1.837
7730,1.899
7731,1.812
7732,1.714
7733,1.682
7734,1.736
7735,1.729
7736,1.628
7737,1.631
7738,1.74
7739,1.761
7740,1.718
7741,1.736
7742,1.866
7743,2.007
7744,1.978
7745,1.837
7746,1.79
7747,1.87
7748,1.87
7749,1.736
7750,1.758
7751,1.964
7752,2.195
7753,2.134
7754,1.91
7755,1.805
7756,1.881
7757,1.91
7758,1.751
7759,1.646
7760,1.718
7761,1.877
7762,1.848
7763,1.783
7764,1.722
7765,1.826
7766,1.805
7767,1.765
7768,1.7
7769,1.787
7770,1.783
7771,1.754
7772,1.714
7773,1.79
7774,1.823
7775,1.863
7776,1.852
7777,1.852
7778,1.837
7779,1.888
7780,1.855
7781,1.837
7782,1.899
7783,2.065
7784,2.018
7785,1.895
7786,1.769
7787,1.653
7788,1.461
7789,1.418
7790,1.816
7791,2.087
7792,2.058
7793,1.917
7794,1.649
7795,1.407
7796,1.418
7797,1.758
7798,2.119
7799,2.138
7800,2.058
7801,2.156
7802,2.018
7803,1.899
7804,2.058
7805,2.043
7806,1.823
7807,1.685
7808,1.465
7809,1.284
7810,1.432
7811,1.866
7812,2.152
7813,2.152
7814,2.271
7815,2.13
7816,1.902
7817,1.921
7818,1.761
7819,1.432
7820,1.45
7821,1.487
7822,1.439
7823,1.718
7824,2.025
7825,1.939
7826,1.921
7827,1.982
7828,1.794
7829,1.736
7830,1.837
7831,1.772
7832,1.696
7833,1.805
7834,1.837
7835,1.776
7836,1.892
7837,1.953
7838,1.888
7839,1.819
7840,1.823
7841,1.798
7842,1.761
7843,1.841
7844,1.899
7845,1.902
7846,1.913
7847,1.928
7848,1.939
7849,1.928
7850,1.888
7851,1.834
7852,1.79
7853,1.769
7854,1.74
7855,1.66
7856,1.411
7857,1.324
7858,1.526
7859,2.051
7860,2.485
7861,2.572
7862,2.488
7863,2.34
7864,2.123
7865,1.826
7866,1.555
7867,1.392
7868,1.382
7869,1.331
7870,1.324
7871,1.382
7872,1.559
7873,1.808
7874,2.083
7875,2.275
7876,2.297
7877,2.105
7878,1.787
7879,1.537
7880,1.454
7881,1.479
7882,1.541
7883,1.628
7884,1.743
7885,1.855
7886,1.964
7887,2.033
7888,2.051
7889,2.015
7890,1.949
7891,1.899
7892,1.877
7893,1.852
7894,1.841
7895,1.852
7896,1.866
7897,1.921
7898,1.978
7899,2.011
7900,2.015
7901,1.982
7902,1.939
7903,1.877
7904,1.812
7905,1.754
7906,1.729
7907,1.714
7908,1.696
7909,1.682
7910,1.682
7911,1.678
7912,1.711
7913,1.776
7914,1.805
7915,1.816
7916,1.83
7917,1.826
7918,1.816
7919,1.801
7920,1.798
7921,1.801
7922,1.801
7923,1.798
7924,1.816
7925,1.852
7926,1.881
7927,1.917
7928,1.931
7929,1.924
7930,1.884
7931,1.816
7932,1.772
7933,1.754
7934,1.765
7935,1.794
7936,1.834
7937,1.834
7938,1.816
7939,1.819
7940,1.866
7941,1.87
7942,1.841
7943,1.801
7944,1.769
7945,1.751
7946,1.74
7947,1.79
7948,1.837
7949,1.863
7950,1.892
7951,1.906
7952,1.921
7953,1.917
7954,1.895
7955,1.87
7956,1.834
7957,1.794
7958,1.751
7959,1.729
7960,1.729
7961,1.751
7962,1.772
7963,1.801
7964,1.837
7965,1.852
7966,1.852
7967,1.866
7968,1.902
7969,1.928
7970,1.921
7971,1.884
7972,1.848
7973,1.823
7974,1.798
7975,1.783
7976,1.823
7977,1.855
7978,1.892
7979,1.884
7980,1.859
7981,1.801
7982,1.758
7983,1.747
7984,1.765
7985,1.787
7986,1.79
7987,1.787
7988,1.776
7989,1.769
7990,1.769
7991,1.714
7992,1.671
7993,1.671
7994,1.816
7995,2.138
7996,2.279
7997,2.098
7998,1.953
7999,1.859
8000,1.729
8001,1.642
8002,1.653
8003,1.638
8004,1.609
8005,1.74
8006,1.899
8007,1.957
8008,1.917
8009,1.834
8010,1.743
8011,1.718
8012,1.704
8013,1.729
8014,1.79
8015,1.863
8016,1.928
8017,1.942
8018,1.928
8019,1.906
8020,1.888
8021,1.87
8022,1.837
8023,1.816
8024,1.823
8025,1.852
8026,1.892
8027,1.91
8028,1.917
8029,1.895
8030,1.848
8031,1.776
8032,1.729
8033,1.675
8034,1.66
8035,1.704
8036,1.754
8037,1.79
8038,1.826
8039,1.874
8040,1.899
8041,1.913
8042,1.931
8043,1.928
8044,1.87
8045,1.805
8046,1.772
8047,1.758
8048,1.769
8049,1.783
8050,1.808
8051,1.805
8052,1.826
8053,1.87
8054,1.902
8055,1.874
8056,1.837
8057,1.837
8058,1.848
8059,1.863
8060,1.87
8061,1.866
8062,1.852
8063,1.845
8064,1.855
8065,1.87
8066,1.855
8067,1.826
8068,1.743
8069,1.675
8070,1.646
8071,1.653
8072,1.704
8073,1.765
8074,1.83
8075,1.87
8076,1.899
8077,1.888
8078,1.852
8079,1.808
8080,1.761
8081,1.751
8082,1.772
8083,1.819
8084,1.892
8085,1.971
8086,2.033
8087,1.996
8088,1.946
8089,1.902
8090,1.866
8091,1.823
8092,1.776
8093,1.725
8094,1.689
8095,1.7
8096,1.74
8097,1.801
8098,1.866
8099,1.892
8100,1.917
8101,1.942
8102,1.957
8103,1.939
8104,1.892
8105,1.816
8106,1.732
8107,1.667
8108,1.635
8109,1.646
8110,1.693
8111,1.729
8112,1.772
8113,1.819
8114,1.834
8115,1.877
8116,1.921
8117,1.953
8118,1.957
8119,1.949
8120,1.895
8121,1.855
8122,1.798
8123,1.751
8124,1.751
8125,1.758
8126,1.79
8127,1.826
8128,1.83
8129,1.852
8130,1.888
8131,1.913
8132,1.917
8133,1.892
8134,1.866
8135,1.848
8136,1.823
8137,1.816
8138,1.787
8139,1.772
8140,1.761
8141,1.725
8142,1.707
8143,1.725
8144,1.761
8145,1.798
8146,1.837
8147,1.874
8148,1.895
8149,1.877
8150,1.823
8151,1.794
8152,1.772
8153,1.776
8154,1.819
8155,1.888
8156,1.96
8157,2.022
8158,2.025
8159,1.982
8160,1.899
8161,1.819
8162,1.765
8163,1.714
8164,1.7
8165,1.714
8166,1.761
8167,1.848
8168,1.91
8169,1.928
8170,1.899
8171,1.859
8172,1.808
8173,1.74
8174,1.678
8175,1.646
8176,1.635
8177,1.657
8178,1.707
8179,1.783
8180,1.855
8181,1.906
8182,1.939
8183,1.928
8184,1.91
8185,1.939
8186,1.978
8187,1.989
8188,1.921
8189,1.714
8190,1.353
8191,1.302
8192,1.374
8193,1.515
8194,1.982
8195,2.398
8196,2.586
8197,2.543
8198,2.402
8199,2.174
8200,1.848
8201,1.562
8202,1.356
8203,1.237
8204,1.23
8205,1.338
8206,1.544
8207,1.808
8208,2.087
8209,2.289
8210,2.344
8211,2.228
8212,2.029
8213,1.841
8214,1.761
8215,1.707
8216,1.649
8217,1.573
8218,1.515
8219,1.544
8220,1.667
8221,1.805
8222,1.906
8223,1.96
8224,1.975
8225,1.968
8226,1.931
8227,1.87
8228,1.772
8229,1.696
8230,1.664
8231,1.678
8232,1.754
8233,1.845
8234,1.935
8235,2.004
8236,2.043
8237,2.058
8238,2.058
8239,2.011
8240,1.942
8241,1.863
8242,1.772
8243,1.7
8244,1.649
8245,1.646
8246,1.689
8247,1.754
8248,1.83
8249,1.874
8250,1.874
8251,1.852
8252,1.798
8253,1.74
8254,1.693
8255,1.693
8256,1.7
8257,1.722
8258,1.761
8259,1.819
8260,1.866
8261,1.924
8262,1.953
8263,1.953
8264,1.928
8265,1.884
8266,1.848
8267,1.841
8268,1.852
8269,1.866
8270,1.87
8271,1.855
8272,1.852
8273,1.812
8274,1.772
8275,1.754
8276,1.758
8277,1.743
8278,1.74
8279,1.747
8280,1.783
8281,1.83
8282,1.888
8283,1.928
8284,1.913
8285,1.902
8286,1.881
8287,1.852
8288,1.834
8289,1.819
8290,1.819
8291,1.819
8292,1.834
8293,1.823
8294,1.808
8295,1.805
8296,1.819
8297,1.852
8298,1.874
8299,1.884
8300,1.881
8301,1.874
8302,1.852
8303,1.816
8304,1.783
8305,1.747
8306,1.722
8307,1.718
8308,1.736
8309,1.754
8310,1.772
8311,1.794
8312,1.819
8313,1.83
8314,1.798
8315,1.779
8316,1.765
8317,1.776
8318,1.801
8319,1.834
8320,1.866
8321,1.895
8322,1.917
8323,1.895
8324,1.845
8325,1.743
8326,1.725
8327,2.0
8328,2.25
8329,2.159
8330,1.986
8331,1.91
8332,1.826
8333,1.689
8334,1.609
8335,1.552
8336,1.534
8337,1.704
8338,1.942
8339,2.094
8340,2.087
8341,1.989
8342,1.848
8343,1.7
8344,1.588
8345,1.555
8346,1.595
8347,1.653
8348,1.718
8349,1.794
8350,1.87
8351,1.931
8352,1.96
8353,1.978
8354,1.953
8355,1.902
8356,1.834
8357,1.769
8358,1.711
8359,1.707
8360,1.729
8361,1.805
8362,1.874
8363,1.892
8364,1.874
8365,1.845
8366,1.826
8367,1.845
8368,1.877
8369,1.91
8370,1.946
8371,1.949
8372,1.935
8373,1.884
8374,1.826
8375,1.743
8376,1.689
8377,1.678
8378,1.707
8379,1.754
8380,1.812
8381,1.855
8382,1.863
8383,1.852
8384,1.855
8385,1.859
8386,1.845
8387,1.83
8388,1.816
8389,1.808
8390,1.79
8391,1.808
8392,1.855
8393,1.895
8394,1.888
8395,1.848
8396,1.826
8397,1.834
8398,1.863
8399,1.874
8400,1.859
8401,1.816
8402,1.819
8403,1.845
8404,1.834
8405,1.823
8406,1.816
8407,1.776
8408,1.732
8409,1.732
8410,1.711
8411,1.779
8412,1.863
8413,1.845
8414,1.769
8415,1.689
8416,1.685
8417,1.74
8418,1.845
8419,1.96
8420,2.022
8421,2.004
8422,1.957
8423,1.863
8424,1.801
8425,1.772
8426,1.812
8427,1.837
8428,1.852
8429,1.826
8430,1.805
8431,1.798
8432,1.83
8433,1.888
8434,1.942
8435,1.924
8436,1.798
8437,1.769
8438,1.693
8439,1.769
8440,1.776
8441,1.772
8442,1.754
8443,1.79
8444,1.841
8445,1.787
8446,1.837
8447,1.899
8448,2.072
8449,2.221
8450,2.148
8451,1.895
8452,1.599
8453,1.418
8454,1.4
8455,1.508
8456,1.725
8457,1.881
8458,2.029
8459,2.069
8460,2.011
8461,1.895
8462,1.754
8463,1.7
8464,1.704
8465,1.823
8466,1.949
8467,1.964
8468,1.884
8469,1.743
8470,1.591
8471,1.559
8472,1.671
8473,1.823
8474,1.935
8475,2.004
8476,2.036
8477,2.004
8478,1.953
8479,1.895
8480,1.808
8481,1.754
8482,1.729
8483,1.714
8484,1.725
8485,1.772
8486,1.819
8487,1.837
8488,1.859
8489,1.866
8490,1.848
8491,1.837
8492,1.823
8493,1.83
8494,1.848
8495,1.874
8496,1.906
8497,1.928
8498,1.888
8499,1.823
8500,1.729
8501,1.635
8502,1.863
8503,1.928
8504,1.866
8505,1.711
8506,1.657
8507,1.682
8508,1.776
8509,1.874
8510,1.895
8511,1.913
8512,1.906
8513,1.852
8514,1.794
8515,1.751
8516,1.776
8517,1.769
8518,1.935
8519,2.076
8520,2.116
8521,1.957
8522,1.494
8523,1.241
8524,1.327
8525,1.638
8526,2.08
8527,2.42
8528,2.525
8529,2.459
8530,2.322
8531,2.083
8532,1.747
8533,1.432
8534,1.237
8535,1.172
8536,1.259
8537,1.461
8538,1.675
8539,1.779
8540,1.758
8541,1.751
8542,1.906
8543,2.17
8544,2.362
8545,2.333
8546,2.156
8547,1.888
8548,1.682
8549,1.599
8550,1.602
8551,1.638
8552,1.649
8553,1.667
8554,1.693
8555,1.74
8556,1.783
8557,1.805
8558,1.808
8559,1.823
8560,1.852
8561,1.892
8562,1.949
8563,1.982
8564,2.015
8565,2.015
8566,1.986
8567,1.953
8568,1.924
8569,1.902
8570,1.892
8571,1.895
8572,1.906
8573,1.913
8574,1.884
8575,1.834
8576,1.772
8577,1.714
8578,1.667
8579,1.628
8580,1.646
8581,1.707
8582,1.765
8583,1.808
8584,1.834
8585,1.816
8586,1.79
8587,1.751
8588,1.74
8589,1.743
8590,1.754
8591,1.79
8592,1.837
8593,1.87
8594,1.902
8595,1.928
8596,1.906
8597,1.884
8598,1.845
8599,1.808
8600,1.783
8601,1.769
8602,1.754
8603,1.761
8604,1.787
8605,1.816
8606,1.819
8607,1.852
8608,1.855
8609,1.852
8610,1.866
8611,1.881
8612,1.902
8613,1.924
8614,1.924
8615,1.921
8616,1.899
8617,1.859
8618,1.823
8619,1.812
8620,1.812
8621,1.805
8622,1.805
8623,1.808
8624,1.819
8625,1.83
8626,1.826
8627,1.826
8628,1.819
8629,1.801
8630,1.772
8631,1.769
8632,1.79
8633,1.798
8634,1.834
8635,1.845
8636,1.845
8637,1.841
8638,1.841
8639,1.808
8640,1.783
8641,1.794
8642,1.79
8643,1.758
8644,1.736
8645,1.707
8646,1.689
8647,1.707
8648,1.761
8649,1.816
8650,1.859
8651,1.913
8652,1.975
8653,1.942
8654,1.819
8655,1.602
8656,1.624
8657,2.033
8658,2.423
8659,2.315
8660,2.235
8661,2.181
8662,1.975
8663,1.736
8664,1.559
8665,1.436
8666,1.371
8667,1.411
8668,1.479
8669,1.624
8670,1.776
8671,1.946
8672,2.076
8673,2.109
8674,2.065
8675,1.978
8676,1.888
8677,1.83
8678,1.779
8679,1.722
8680,1.7
8681,1.693
8682,1.707
8683,1.722
8684,1.751
8685,1.808
8686,1.877
8687,1.921
8688,1.939
8689,1.931
8690,1.899
8691,1.859
8692,1.823
8693,1.798
8694,1.769
8695,1.776
8696,1.801
8697,1.834
8698,1.877
8699,1.91
8700,1.924
8701,1.906
8702,1.874
8703,1.826
8704,1.765
8705,1.736
8706,1.722
8707,1.725
8708,1.725
8709,1.74
8710,1.772
8711,1.805
8712,1.826
8713,1.841
8714,1.848
8715,1.845
8716,1.834
8717,1.823
8718,1.826
8719,1.841
8720,1.852
8721,1.859
8722,1.859
8723,1.859
8724,1.866
8725,1.874
8726,1.881
8727,1.87
8728,1.863
8729,1.863
8730,1.855
8731,1.855
8732,1.852
8733,1.855
8734,1.859
8735,1.837
8736,1.783
8737,1.747
8738,1.751
8739,1.761
8740,1.808
8741,1.826
8742,1.805
8743,1.801
8744,1.826
8745,1.855
8746,1.899
8747,1.913
8748,1.888
8749,1.834
8750,1.779
8751,1.722
8752,1.707
8753,1.736
8754,1.765
8755,1.816
8756,1.837
8757,1.859
8758,1.866
8759,1.863
8760,1.852
8761,1.841
8762,1.812
8763,1.783
8764,1.761
8765,1.747
8766,1.772
8767,1.776
8768,1.779
8769,1.787
8770,1.798
8771,1.819
8772,1.859
8773,1.884
8774,1.899
8775,1.924
8776,1.949
8777,1.964
8778,1.953
8779,1.946
8780,1.902
8781,1.837
8782,1.772
8783,1.74
8784,1.729
8785,1.707
8786,1.74
8787,1.776
8788,1.812
8789,1.848
8790,1.855
8791,1.852
8792,1.848
8793,1.837
8794,1.819
8795,1.801
8796,1.79
8797,1.776
8798,1.783
8799,1.776
8800,1.808
8801,1.816
8802,1.855
8803,1.892
8804,1.899
8805,1.888
8806,1.87
8807,1.855
8808,1.837
8809,1.808
8810,1.808
8811,1.823
8812,1.834
8813,1.852
8814,1.884
8815,1.899
8816,1.888
8817,1.848
8818,1.812
8819,1.783
8820,1.718
8821,1.722
8822,1.751
8823,1.776
8824,1.823
8825,1.852
8826,1.87
8827,1.859
8828,1.819
8829,1.798
8830,1.798
8831,1.776
8832,1.798
8833,1.769
8834,1.776
8835,1.783
8836,1.819
8837,1.866
8838,1.935
8839,1.986
8840,1.975
8841,1.913
8842,1.841
8843,1.772
8844,1.526
8845,1.28
8846,1.356
8847,1.515
8848,1.946
8849,2.376
8850,2.582
8851,2.546
8852,2.43
8853,2.217
8854,1.895
8855,1.599
8856,1.447
8857,1.407
8858,1.439
8859,1.508
8860,1.544
8861,1.519
8862,1.497
8863,1.606
8864,1.852
8865,2.148
8866,2.279
8867,2.21
8868,2.033
8869,1.87
8870,1.729
8871,1.638
8872,1.606
8873,1.638
8874,1.736
8875,1.837
8876,1.892
8877,1.877
8878,1.859
8879,1.826
8880,1.798
8881,1.776
8882,1.765
8883,1.794
8884,1.837
8885,1.888
8886,1.946
8887,1.996
8888,2.018
8889,2.033
8890,2.011
8891,1.96
8892,1.888
8893,1.798
8894,1.754
8895,1.732
8896,1.74
8897,1.747
8898,1.761
8899,1.801
8900,1.834
8901,1.845
8902,1.841
8903,1.834
8904,1.819
8905,1.794
8906,1.776
8907,1.758
8908,1.751
8909,1.736
8910,1.718
8911,1.718
8912,1.747
8913,1.783
8914,1.848
8915,1.892
8916,1.895
8917,1.87
8918,1.823
8919,1.776
8920,1.747
8921,1.722
8922,1.736
8923,1.769
8924,1.823
8925,1.859
8926,1.877
8927,1.892
8928,1.91
8929,1.91
8930,1.917
8931,1.924
8932,1.924
8933,1.917
8934,1.906
8935,1.888
8936,1.855
8937,1.816
8938,1.801
8939,1.798
8940,1.801
8941,1.83
8942,1.855
8943,1.888
8944,1.899
8945,1.892
8946,1.863
8947,1.823
8948,1.79
8949,1.747
8950,1.711
8951,1.7
8952,1.704
8953,1.714
8954,1.736
8955,1.758
8956,1.794
8957,1.83
8958,1.87
8959,1.892
8960,1.892
8961,1.877
8962,1.866
8963,1.819
8964,1.765
8965,1.725
8966,1.722
8967,1.725
8968,1.74
8969,1.769
8970,1.801
8971,1.83
8972,1.855
8973,1.877
8974,1.859
8975,1.841
8976,1.837
8977,1.837
8978,1.805
8979,1.722
8980,1.62
8981,1.859
8982,2.344
8983,2.394
8984,2.195
8985,2.174
8986,2.123
8987,1.892
8988,1.671
8989,1.523
8990,1.439
8991,1.425
8992,1.537
8993,1.678
8994,1.787
8995,1.892
8996,1.957
8997,1.964
8998,1.935
8999,1.906
9000,1.841
9001,1.761
9002,1.696
9003,1.642
9004,1.609
9005,1.613
9006,1.649
9007,1.718
9008,1.812
9009,1.921
9010,2.015
9011,2.065
9012,2.051
9013,1.978
9014,1.892
9015,1.812
9016,1.776
9017,1.736
9018,1.743
9019,1.769
9020,1.801
9021,1.808
9022,1.816
9023,1.819
9024,1.845
9025,1.866
9026,1.884
9027,1.906
9028,1.895
9029,1.855
9030,1.812
9031,1.794
9032,1.805
9033,1.816
9034,1.812
9035,1.823
9036,1.848
9037,1.902
9038,1.946
9039,1.946
9040,1.939
9041,1.906
9042,1.852
9043,1.779
9044,1.7
9045,1.649
9046,1.646
9047,1.696
9048,1.769
9049,1.874
9050,1.935
9051,1.939
9052,1.892
9053,1.968
9054,1.964
9055,1.899
9056,1.758
9057,1.562
9058,1.436
9059,1.432
9060,1.541
9061,1.602
9062,1.863
9063,1.953
9064,2.007
9065,2.043
9066,1.993
9067,1.946
9068,1.924
9069,1.881
9070,1.863
9071,1.83
9072,1.808
9073,1.798
9074,1.812
9075,1.83
9076,1.877
9077,1.935
9078,1.975
9079,1.964
9080,1.924
9081,1.863
9082,1.834
9083,1.808
9084,1.816
9085,1.834
9086,1.845
9087,1.808
9088,1.74
9089,1.675
9090,1.657
9091,1.664
9092,1.722
9093,1.769
9094,1.845
9095,1.881
9096,1.895
9097,1.859
9098,1.819
9099,1.798
9100,1.772
9101,1.776
9102,1.801
9103,1.823
9104,1.816
9105,1.823
9106,1.837
9107,1.863
9108,1.902
9109,1.91
9110,1.906
9111,1.866
9112,1.837
9113,1.794
9114,1.805
9115,1.837
9116,1.895
9117,1.913
9118,1.917
9119,1.888
9120,1.845
9121,1.823
9122,1.826
9123,1.805
9124,1.776
9125,1.747
9126,1.725
9127,1.718
9128,1.747
9129,1.772
9130,1.805
9131,1.859
9132,1.881
9133,1.87
9134,1.852
9135,1.826
9136,1.772
9137,1.732
9138,1.718
9139,1.718
9140,1.74
9141,1.787
9142,1.855
9143,1.899
9144,1.921
9145,1.935
9146,1.939
9147,1.928
9148,1.921
9149,1.888
9150,1.884
9151,1.852
9152,1.83
9153,1.823
9154,1.823
9155,1.783
9156,1.79
9157,1.787
9158,1.819
9159,1.834
9160,1.866
9161,1.866
9162,1.874
9163,1.845
9164,1.79
9165,1.711
9166,1.613
9167,1.382
9168,1.345
9169,1.411
9170,1.711
9171,2.141
9172,2.463
9173,2.575
9174,2.51
9175,2.38
9176,2.13
9177,1.808
9178,1.49
9179,1.241
9180,1.161
9181,1.255
9182,1.4
9183,1.642
9184,1.928
9185,2.141
9186,2.224
9187,2.224
9188,2.156
9189,2.054
9190,1.899
9191,1.751
9192,1.573
9193,1.458
9194,1.425
9195,1.472
9196,1.62
9197,1.787
9198,1.906
9199,1.957
9200,1.989
9201,2.0
9202,1.989
9203,1.968
9204,1.917
9205,1.87
9206,1.823
9207,1.808
9208,1.801
9209,1.87
9210,1.913
9211,1.939
9212,1.921
9213,1.91
9214,1.899
9215,1.863
9216,1.83
9217,1.79
9218,1.747
9219,1.714
9220,1.696
9221,1.696
9222,1.718
9223,1.711
9224,1.743
9225,1.801
9226,1.837
9227,1.87
9228,1.87
9229,1.884
9230,1.888
9231,1.884
9232,1.892
9233,1.884
9234,1.87
9235,1.855
9236,1.826
9237,1.794
9238,1.761
9239,1.747
9240,1.769
9241,1.754
9242,1.747
9243,1.729
9244,1.725
9245,1.754
9246,1.79
9247,1.859
9248,1.906
9249,1.946
9250,1.953
9251,1.935
9252,1.892
9253,1.859
9254,1.845
9255,1.848
9256,1.855
9257,1.837
9258,1.841
9259,1.794
9260,1.79
9261,1.808
9262,1.852
9263,1.866
9264,1.863
9265,1.855
9266,1.884
9267,1.866
9268,1.805
9269,1.765
9270,1.758
9271,1.761
9272,1.801
9273,1.819
9274,1.826
9275,1.845
9276,1.819
9277,1.794
9278,1.761
9279,1.751
9280,1.722
9281,1.689
9282,1.704
9283,1.725
9284,1.783
9285,1.834
9286,1.87
9287,1.906
9288,1.921
9289,1.921
9290,1.935
9291,1.931
9292,1.917
9293,1.899
9294,1.87
9295,1.841
9296,1.816
9297,1.812
9298,1.812
9299,1.845
9300,1.859
9301,1.866
9302,1.877
9303,1.87
9304,1.783
9305,1.685
9306,1.693
9307,1.848
9308,2.123
9309,2.181
9310,2.043
9311,1.993
9312,1.931
9313,1.743
9314,1.476
9315,1.385
9316,1.425
9317,1.508
9318,1.704
9319,1.906
9320,1.968
9321,1.924
9322,1.87
9323,1.826
9324,1.812
9325,1.812
9326,1.779
9327,1.725
9328,1.722
9329,1.754
9330,1.798
9331,1.819
9332,1.87
9333,1.899
9334,1.928
9335,1.949
9336,1.953
9337,1.949
9338,1.953
9339,1.921
9340,1.859
9341,1.79
9342,1.758
9343,1.729
9344,1.725
9345,1.776
9346,1.845
9347,1.899
9348,1.946
9349,1.964
9350,1.957
9351,1.902
9352,1.816
9353,1.707
9354,1.671
9355,1.689
9356,1.711
9357,1.754
9358,1.769
9359,1.808
9360,1.855
9361,1.892
9362,1.91
9363,1.899
9364,1.881
9365,1.881
9366,1.855
9367,1.823
9368,1.812
9369,1.841
9370,1.848
9371,1.837
9372,1.805
9373,1.754
9374,1.704
9375,1.707
9376,1.718
9377,1.779
9378,1.863
9379,1.924
9380,1.928
9381,1.855
9382,1.798
9383,1.747
9384,1.74
9385,1.747
9386,1.798
9387,1.837
9388,1.874
9389,1.87
9390,1.859
9391,1.837
9392,1.801
9393,1.79
9394,1.819
9395,1.852
9396,1.874
9397,1.87
9398,1.884
9399,1.91
9400,1.921
9401,1.906
9402,1.852
9403,1.805
9404,1.747
9405,1.754
9406,1.787
9407,1.834
9408,1.859
9409,1.884
9410,1.906
9411,1.855
9412,1.794
9413,1.729
9414,1.714
9415,1.696
9416,1.747
9417,1.765
9418,1.79
9419,1.787
9420,1.79
9421,1.826
9422,1.852
9423,1.877
9424,1.913
9425,1.953
9426,1.921
9427,1.917
9428,1.87
9429,1.805
9430,1.765
9431,1.765
9432,1.769
9433,1.783
9434,1.823
9435,1.848
9436,1.855
9437,1.805
9438,1.816
9439,1.808
9440,1.812
9441,1.852
9442,1.855
9443,1.863
9444,1.852
9445,1.859
9446,1.834
9447,1.808
9448,1.772
9449,1.751
9450,1.729
9451,1.769
9452,1.819
9453,1.826
9454,1.845
9455,1.881
9456,1.906
9457,1.895
9458,1.881
9459,1.852
9460,1.823
9461,1.819
9462,1.837
9463,1.837
9464,1.837
9465,1.845
9466,1.859
9467,1.863
9468,1.859
9469,1.845
9470,1.801
9471,1.751
9472,1.704
9473,1.678
9474,1.657
9475,1.675
9476,1.736
9477,1.776
9478,1.859
9479,1.902
9480,1.935
9481,1.96
9482,1.964
9483,1.935
9484,1.895
9485,1.863
9486,1.805
9487,1.776
9488,1.732
9489,1.718
9490,1.718
9491,1.772
9492,1.848
9493,1.913
9494,1.949
9495,1.928
9496,1.848
9497,1.714
9498,1.389
9499,1.331
9500,1.62
9501,2.054
9502,2.412
9503,2.521
9504,2.445
9505,2.286
9506,2.054
9507,1.83
9508,1.591
9509,1.378
9510,1.201
9511,1.219
9512,1.342
9513,1.562
9514,1.805
9515,2.029
9516,2.235
9517,2.394
9518,2.347
9519,2.174
9520,1.899
9521,1.696
9522,1.512
9523,1.338
9524,1.262
9525,1.335
9526,1.436
9527,1.66
9528,1.899
9529,2.043
9530,2.109
9531,2.112
9532,2.069
9533,2.018
9534,1.953
9535,1.87
9536,1.805
9537,1.769
9538,1.805
9539,1.899
9540,1.964
9541,2.007
9542,2.004
9543,1.982
9544,1.921
9545,1.863
9546,1.801
9547,1.74
9548,1.696
9549,1.725
9550,1.714
9551,1.714
9552,1.707
9553,1.732
9554,1.74
9555,1.783
9556,1.819
9557,1.874
9558,1.881
9559,1.881
9560,1.848
9561,1.837
9562,1.837
9563,1.823
9564,1.834
9565,1.845
9566,1.884
9567,1.888
9568,1.87
9569,1.826
9570,1.758
9571,1.732
9572,1.693
9573,1.725
9574,1.743
9575,1.787
9576,1.816
9577,1.837
9578,1.841
9579,1.83
9580,1.805
9581,1.805
9582,1.837
9583,1.884
9584,1.899
9585,1.899
9586,1.895
9587,1.913
9588,1.931
9589,1.935
9590,1.881
9591,1.819
9592,1.787
9593,1.783
9594,1.783
9595,1.798
9596,1.779
9597,1.765
9598,1.754
9599,1.801
9600,1.848
9601,1.899
9602,1.888
9603,1.859
9604,1.819
9605,1.761
9606,1.732
9607,1.714
9608,1.74
9609,1.754
9610,1.798
9611,1.855
9612,1.863
9613,1.881
9614,1.805
9615,1.942
9616,1.812
9617,1.834
9618,1.761
9619,1.841
9620,1.848
9621,1.877
9622,2.018
9623,1.91
9624,1.888
9625,1.855
9626,1.83
9627,1.798
9628,1.787
9629,1.769
9630,1.783
9631,1.783
9632,1.751
9633,1.732
9634,1.776
9635,1.772
9636,1.74
9637,1.743
9638,1.801
9639,2.04
9640,2.21
9641,2.007
9642,1.841
9643,1.866
9644,1.798
9645,1.711
9646,1.718
9647,1.732
9648,1.649
9649,1.599
9650,1.704
9651,1.805
9652,1.892
9653,1.942
9654,1.971
9655,1.913
9656,1.906
9657,1.881
9658,1.823
9659,1.801
9660,1.758
9661,1.725
9662,1.754
9663,1.816
9664,1.859
9665,1.906
9666,1.91
9667,1.917
9668,1.906
9669,1.83
9670,1.772
9671,1.722
9672,1.714
9673,1.736
9674,1.826
9675,1.837
9676,1.863
9677,1.834
9678,1.823
9679,1.812
9680,1.823
9681,1.841
9682,1.859
9683,1.924
9684,1.928
9685,1.949
9686,1.87
9687,1.83
9688,1.772
9689,1.751
9690,1.751
9691,1.772
9692,1.816
9693,1.819
9694,1.863
9695,1.834
9696,1.855
9697,1.812
9698,1.769
9699,1.751
9700,1.769
9701,1.808
9702,1.808
9703,1.787
9704,1.761
9705,1.801
9706,1.794
9707,1.772
9708,1.826
9709,1.841
9710,1.931
9711,1.928
9712,1.928
9713,1.895
9714,1.866
9715,1.841
9716,1.812
9717,1.83
9718,1.816
9719,1.863
9720,1.899
9721,1.877
9722,1.848
9723,1.783
9724,1.769
9725,1.798
9726,1.852
9727,1.913
9728,1.902
9729,1.888
9730,1.823
9731,1.751
9732,1.696
9733,1.671
9734,1.649
9735,1.66
9736,1.682
9737,1.751
9738,1.848
9739,1.866
9740,1.913
9741,1.946
9742,1.928
9743,1.917
9744,1.892
9745,1.866
9746,1.841
9747,1.798
9748,1.758
9749,1.816
9750,1.917
9751,2.007
9752,1.859
9753,1.765
9754,1.761
9755,1.758
9756,1.779
9757,1.548
9758,1.787
9759,2.235
9760,2.221
9761,1.971
9762,1.718
9763,1.483
9764,1.327
9765,1.338
9766,1.552
9767,1.841
9768,2.051
9769,2.17
9770,2.286
9771,2.257
9772,2.087
9773,1.881
9774,1.693
9775,1.667
9776,1.523
9777,1.617
9778,1.722
9779,1.801
9780,1.826
9781,1.859
9782,1.895
9783,1.921
9784,1.924
9785,1.906
9786,1.845
9787,1.765
9788,1.711
9789,1.711
9790,1.707
9791,1.747
9792,1.848
9793,1.957
9794,2.065
9795,2.123
9796,2.145
9797,2.072
9798,1.906
9799,1.722
9800,1.609
9801,1.541
9802,1.519
9803,1.519
9804,1.581
9805,1.675
9806,1.743
9807,1.751
9808,1.79
9809,1.823
9810,1.859
9811,1.884
9812,1.913
9813,1.906
9814,1.888
9815,1.852
9816,1.877
9817,1.884
9818,1.881
9819,1.881
9820,1.834
9821,1.816
9822,1.852
9823,1.917
9824,1.946
9825,1.953
9826,1.928
9827,1.899
9828,1.83
9829,1.787
9830,1.79
9831,1.805
9832,1.816
9833,1.855
9834,1.845
9835,1.823
9836,1.783
9837,1.664
9838,1.497
9839,1.367
9840,1.508
9841,1.899
9842,2.275
9843,2.485
9844,2.492
9845,2.405
9846,2.286
9847,2.109
9848,1.845
9849,1.649
9850,1.508
9851,1.317
9852,1.165
9853,1.212
9854,1.295
9855,1.371
9856,1.66
9857,2.043
9858,2.268
9859,2.239
9860,2.101
9861,1.917
9862,1.859
9863,1.83
9864,1.769
9865,1.671
9866,1.577
9867,1.57
9868,1.667
9869,1.816
9870,1.942
9871,1.982
9872,1.971
9873,1.931
9874,1.899
9875,1.87
9876,1.826
9877,1.798
9878,1.79
9879,1.819
9880,1.852
9881,1.884
9882,1.913
9883,1.928
9884,1.96
9885,1.989
9886,1.964
9887,1.924
9888,1.884
9889,1.852
9890,1.834
9891,1.798
9892,1.787
9893,1.743
9894,1.711
9895,1.693
9896,1.689
9897,1.704
9898,1.736
9899,1.758
9900,1.765
9901,1.79
9902,1.779
9903,1.801
9904,1.801
9905,1.83
9906,1.884
9907,1.921
9908,1.946
9909,1.942
9910,1.924
9911,1.888
9912,1.812
9913,1.765
9914,1.736
9915,1.714
9916,1.751
9917,1.79
9918,1.823
9919,1.859
9920,1.874
9921,1.87
9922,1.845
9923,1.812
9924,1.794
9925,1.794
9926,1.801
9927,1.823
9928,1.812
9929,1.79
9930,1.769
9931,1.74
9932,1.765
9933,1.808
9934,1.852
9935,1.91
9936,1.935
9937,1.957
9938,1.971
9939,1.964
9940,1.921
9941,1.863
9942,1.823
9943,1.808
9944,1.816
9945,1.826
9946,1.855
9947,1.834
9948,1.823
9949,1.79
9950,1.769
9951,1.729
9952,1.711
9953,1.707
9954,1.725
9955,1.783
9956,1.812
9957,1.834
9958,1.834
9959,1.816
9960,1.826
9961,1.834
9962,1.845
9963,1.87
9964,1.884
9965,1.899
9966,1.881
9967,1.848
9968,1.819
9969,1.769
9970,1.787
9971,1.79
9972,1.808
9973,1.819
9974,1.819
9975,1.798
9976,1.736
9977,1.794
9978,2.047
9979,2.239
9980,2.119
9981,2.047
9982,1.964
9983,1.787
9984,1.657
9985,1.599
9986,1.53
9987,1.523
9988,1.635
9989,1.841
9990,1.986
9991,1.978
9992,1.902
9993,1.758
9994,1.631
9995,1.562
9996,1.552
9997,1.602
9998,1.682
9999,1.794
10000,1.91
10001,1.953
10002,1.975
10003,1.986
10004,1.982
10005,1.953
10006,1.917
10007,1.899
10008,1.906
10009,1.917
10010,1.899
10011,1.902
10012,1.874
10013,1.855
10014,1.841
10015,1.805
10016,1.772
10017,1.758
10018,1.747
10019,1.772
10020,1.816
10021,1.863
10022,1.921
10023,1.935
10024,1.921
10025,1.877
10026,1.826
10027,1.798
10028,1.769
10029,1.74
10030,1.722
10031,1.747
10032,1.79
10033,1.826
10034,1.816
10035,1.816
10036,1.816
10037,1.819
10038,1.805
10039,1.783
10040,1.787
10041,1.798
10042,1.808
10043,1.83
10044,1.823
10045,1.816
10046,1.816
10047,1.812
10048,1.805
10049,1.794
10050,1.787
10051,1.83
10052,1.87
10053,1.91
10054,1.917
10055,1.877
10056,1.812
10057,1.772
10058,1.732
10059,1.725
10060,1.765
10061,1.823
10062,1.888
10063,1.939
10064,1.931
10065,1.881
10066,1.819
10067,1.819
10068,1.826
10069,1.855
10070,1.877
10071,1.902
10072,1.913
10073,1.902
10074,1.874
10075,1.83
10076,1.787
10077,1.751
10078,1.758
10079,1.772
10080,1.794
10081,1.805
10082,1.816
10083,1.816
10084,1.819
10085,1.812
10086,1.798
10087,1.776
10088,1.779
10089,1.805
10090,1.794
10091,1.798
10092,1.823
10093,1.823
10094,1.819
10095,1.819
10096,1.816
10097,1.816
10098,1.845
10099,1.892
10100,1.91
10101,1.881
10102,1.881
10103,1.845
10104,1.819
10105,1.794
10106,1.826
10107,1.877
10108,1.91
10109,1.892
10110,1.823
10111,1.751
10112,1.667
10113,1.617
10114,1.62
10115,1.667
10116,1.794
10117,1.899
10118,1.975
10119,2.022
10120,1.964
10121,1.892
10122,1.816
10123,1.794
10124,1.823
10125,1.834
10126,1.845
10127,1.816
10128,1.812
10129,1.808
10130,1.805
10131,1.83
10132,1.834
10133,1.892
10134,1.935
10135,1.935
10136,1.931
10137,1.845
10138,1.798
10139,1.761
10140,1.761
10141,1.794
10142,1.736
10143,1.761
10144,1.758
10145,1.776
10146,1.841
10147,1.855
10148,1.884
10149,1.87
10150,1.874
10151,1.866
10152,1.769
10153,1.714
10154,1.693
10155,1.736
10156,1.772
10157,1.805
10158,1.83
10159,1.823
10160,1.826
10161,1.805
10162,1.83
10163,1.852
10164,1.855
10165,1.888
10166,1.845
10167,1.863
10168,1.87
10169,1.91
10170,1.924
10171,1.888
10172,1.881
10173,1.783
10174,1.986
10175,1.892
10176,1.718
10177,1.505
10178,1.45
10179,1.479
10180,1.523
10181,1.693
10182,1.957
10183,2.188
10184,2.344
10185,2.474
10186,2.398
10187,2.318
10188,2.076
10189,1.798
10190,1.57
10191,1.436
10192,1.407
10193,1.479
10194,1.617
10195,1.704
10196,1.714
10197,1.638
10198,1.577
10199,1.599
10200,1.906
10201,2.127
10202,2.08
10203,1.881
10204,1.638
10205,1.555
10206,1.62
10207,1.743
10208,1.863
10209,1.917
10210,1.899
10211,1.866
10212,1.852
10213,1.888
10214,1.899
10215,1.877
10216,1.826
10217,1.798
10218,1.801
10219,1.845
10220,1.91
10221,1.968
10222,2.011
10223,2.036
10224,2.025
10225,2.025
10226,2.007
10227,2.0
10228,1.968
10229,1.899
10230,1.841
10231,1.761
10232,1.704
10233,1.667
10234,1.635
10235,1.657
10236,1.664
10237,1.66
10238,1.664
10239,1.642
10240,1.642
10241,1.667
10242,1.769
10243,1.888
10244,1.931
10245,1.834
10246,1.602
10247,1.779
10248,2.065
10249,2.242
10250,2.213
10251,2.043
10252,1.837
10253,1.653
10254,1.559
10255,1.541
10256,1.591
10257,1.685
10258,1.758
10259,1.819
10260,1.881
10261,1.917
10262,1.957
10263,1.957
10264,1.921
10265,1.877
10266,1.855
10267,1.848
10268,1.848
10269,1.845
10270,1.852
10271,1.866
10272,1.852
10273,1.841
10274,1.823
10275,1.812
10276,1.812
10277,1.808
10278,1.823
10279,1.837
10280,1.852
10281,1.866
10282,1.859
10283,1.812
10284,1.779
10285,1.736
10286,1.714
10287,1.725
10288,1.758
10289,1.808
10290,1.83
10291,1.845
10292,1.848
10293,1.808
10294,1.772
10295,1.765
10296,1.761
10297,1.798
10298,1.852
10299,1.899
10300,1.924
10301,1.953
10302,1.986
10303,2.007
10304,1.946
10305,1.863
10306,1.765
10307,1.685
10308,1.642
10309,1.635
10310,1.685
10311,1.736
10312,1.783
10313,1.848
10314,1.884
10315,1.816
10316,1.653
10317,1.772
10318,2.192
10319,2.344
10320,2.156
10321,2.13
10322,2.138
10323,1.982
10324,1.74
10325,1.559
10326,1.418
10327,1.349
10328,1.429
10329,1.591
10330,1.743
10331,1.87
10332,1.964
10333,1.982
10334,1.892
10335,1.772
10336,1.646
10337,1.577
10338,1.62
10339,1.732
10340,1.855
10341,1.935
10342,1.989
10343,2.025
10344,2.018
10345,1.989
10346,1.96
10347,1.902
10348,1.906
10349,1.931
10350,1.949
10351,1.921
10352,1.863
10353,1.816
10354,1.761
10355,1.718
10356,1.693
10357,1.685
10358,1.693
10359,1.722
10360,1.769
10361,1.837
10362,1.888
10363,1.91
10364,1.888
10365,1.881
10366,1.834
10367,1.812
10368,1.823
10369,1.812
10370,1.837
10371,1.841
10372,1.859
10373,1.841
10374,1.826
10375,1.816
10376,1.801
10377,1.823
10378,1.826
10379,1.819
10380,1.779
10381,1.758
10382,1.74
10383,1.725
10384,1.74
10385,1.798
10386,1.859
10387,1.906
10388,1.917
10389,1.942
10390,1.899
10391,1.837
10392,1.794
10393,1.758
10394,1.805
10395,1.855
10396,1.899
10397,1.87
10398,1.845
10399,1.834
10400,1.83
10401,1.819
10402,1.787
10403,1.772
10404,1.747
10405,1.732
10406,1.765
10407,1.805
10408,1.874
10409,1.921
10410,1.906
10411,1.848
10412,1.79
10413,1.819
10414,1.826
10415,1.805
10416,1.747
10417,1.696
10418,1.714
10419,1.798
10420,1.866
10421,1.874
10422,1.819
10423,1.794
10424,1.751
10425,1.779
10426,1.848
10427,1.895
10428,1.949
10429,1.964
10430,1.978
10431,2.025
10432,2.051
10433,2.022
10434,1.924
10435,1.812
10436,1.693
10437,1.646
10438,1.689
10439,1.736
10440,1.841
10441,1.935
10442,1.968
10443,1.899
10444,1.722
10445,1.573
10446,1.501
10447,1.566
10448,1.696
10449,1.779
10450,1.765
10451,1.758
10452,1.776
10453,1.826
10454,1.881
10455,1.993
10456,2.072
10457,2.112
10458,2.04
10459,1.906
10460,1.801
10461,1.704
10462,1.722
10463,1.79
10464,1.895
10465,1.978
10466,2.029
10467,1.989
10468,1.863
10469,1.787
10470,1.729
10471,1.729
10472,1.776
10473,1.877
10474,1.812
10475,1.671
10476,1.671
10477,1.577
10478,1.548
10479,1.602
10480,1.696
10481,1.837
10482,1.921
10483,2.029
10484,2.105
10485,2.112
10486,2.065
10487,1.986
10488,1.921
10489,1.852
10490,1.776
10491,1.704
10492,1.642
10493,1.635
10494,1.624
10495,1.761
10496,1.855
10497,1.968
10498,1.964
10499,1.895
10500,1.855
10501,1.729
10502,1.685
10503,1.718
10504,1.707
10505,1.743
10506,1.707
10507,1.682
10508,1.696
10509,1.776
10510,1.884
10511,1.902
10512,1.902
10513,1.881
10514,1.801
10515,1.548
10516,1.378
10517,1.443
10518,1.722
10519,2.235
10520,2.597
10521,2.615
10522,2.532
10523,2.148
10524,1.921
10525,1.704
10526,1.591
10527,1.555
10528,1.548
10529,1.581
10530,1.66
10531,1.758
10532,1.877
10533,1.982
10534,2.069
10535,2.091
10536,2.025
10537,1.924
10538,1.801
10539,1.722
10540,1.664
10541,1.617
10542,1.562
10543,1.541
10544,1.573
10545,1.642
10546,1.736
10547,1.798
10548,1.834
10549,1.892
10550,1.906
10551,1.906
10552,1.874
10553,1.801
10554,1.787
10555,1.816
10556,1.855
10557,1.87
10558,1.877
10559,1.913
10560,1.978
10561,2.029
10562,2.0
10563,1.924
10564,1.855
10565,1.805
10566,1.787
10567,1.758
10568,1.761
10569,1.776
10570,1.794
10571,1.808
10572,1.805
10573,1.823
10574,1.798
10575,1.779
10576,1.776
10577,1.79
10578,1.816
10579,1.837
10580,1.841
10581,1.816
10582,1.779
10583,1.758
10584,1.761
10585,1.776
10586,1.772
10587,1.79
10588,1.834
10589,1.877
10590,1.917
10591,1.917
10592,1.895
10593,1.855
10594,1.83
10595,1.823
10596,1.798
10597,1.801
10598,1.812
10599,1.841
10600,1.87
10601,1.884
10602,1.913
10603,1.924
10604,1.928
10605,1.906
10606,1.881
10607,1.834
10608,1.79
10609,1.776
10610,1.758
10611,1.761
10612,1.74
10613,1.714
10614,1.769
10615,1.808
10616,1.718
10617,1.707
10618,1.794
10619,1.812
10620,1.725
10621,1.761
10622,1.725
10623,1.678
10624,1.693
10625,1.902
10626,1.939
10627,1.863
10628,1.819
10629,1.913
10630,1.899
10631,1.881
10632,1.899
10633,2.004
10634,1.949
10635,1.888
10636,1.87
10637,1.892
10638,1.866
10639,1.87
10640,1.949
10641,1.935
10642,1.816
10643,1.805
10644,1.968
10645,2.062
10646,1.913
10647,1.682
10648,1.649
10649,1.87
10650,1.986
10651,1.848
10652,1.606
10653,1.443
10654,1.541
10655,1.74
10656,1.83
10657,1.725
10658,1.675
10659,1.7
10660,1.736
10661,1.732
10662,1.758
10663,1.859
10664,1.924
10665,1.957
10666,1.975
10667,1.975
10668,1.931
10669,1.881
10670,1.823
10671,1.787
10672,1.725
10673,1.729
10674,1.808
10675,1.714
10676,1.675
10677,1.79
10678,2.004
10679,2.17
10680,2.257
10681,2.235
10682,2.101
10683,1.899
10684,1.754
10685,1.682
10686,1.667
10687,1.722
10688,1.779
10689,1.848
10690,1.87
10691,1.837
10692,1.834
10693,1.794
10694,1.66
10695,1.769
10696,1.682
10697,1.436
10698,1.392
10699,1.573
10700,1.87
10701,2.047
10702,2.062
10703,2.004
10704,1.834
10705,1.772
10706,1.754
10707,1.772
10708,1.747
10709,1.758
10710,1.667
10711,1.649
10712,1.722
10713,1.87
10714,1.895
10715,1.935
10716,2.029
10717,2.015
10718,1.881
10719,1.808
10720,1.866
10721,2.04
10722,2.13
10723,2.08
10724,1.996
10725,1.942
10726,1.812
10727,1.743
10728,1.707
10729,1.617
10730,1.541
10731,1.584
10732,1.7
10733,1.732
10734,1.779
10735,1.928
10736,2.033
10737,2.011
10738,1.949
10739,1.975
10740,1.982
10741,1.939
10742,1.852
10743,1.776
10744,1.751
10745,1.754
10746,1.787
10747,1.779
10748,1.776
10749,1.761
10750,1.769
10751,1.743
10752,1.729
10753,1.725
10754,1.765
10755,1.798
10756,1.841
10757,1.834
10758,1.816
10759,1.769
10760,1.711
10761,1.693
10762,1.667
10763,1.718
10764,1.779
10765,1.855
10766,1.902
10767,1.924
10768,1.913
10769,1.888
10770,1.913
10771,1.917
10772,1.888
10773,1.848
10774,1.845
10775,1.921
10776,1.968
10777,2.062
10778,2.134
10779,2.054
10780,1.931
10781,1.671
10782,1.454
10783,1.338
10784,1.331
10785,1.389
10786,1.512
10787,1.689
10788,1.888
10789,2.083
10790,2.213
10791,2.268
10792,2.268
10793,2.181
10794,2.025
10795,1.888
10796,1.783
10797,1.732
10798,1.758
10799,1.826
10800,1.895
10801,1.921
10802,1.913
10803,1.877
10804,1.841
10805,1.816
10806,1.801
10807,1.761
10808,1.736
10809,1.685
10810,1.638
10811,1.617
10812,1.602
10813,1.638
10814,1.693
10815,1.758
10816,1.787
10817,1.798
10818,1.826
10819,1.855
10820,1.855
10821,1.808
10822,1.776
10823,1.722
10824,1.653
10825,1.635
10826,1.678
10827,1.736
10828,1.779
10829,1.812
10830,1.881
10831,1.975
10832,2.029
10833,2.185
10834,2.427
10835,2.224
10836,1.859
10837,1.602
10838,1.638
10839,1.841
10840,1.953
10841,1.946
10842,1.812
10843,1.765
10844,1.675
10845,1.624
10846,1.555
10847,1.588
10848,1.707
10849,1.888
10850,2.043
10851,2.138
10852,2.127
10853,2.145
10854,2.105
10855,1.946
10856,1.693
10857,1.544
10858,1.667
10859,1.949
10860,2.246
10861,2.365
10862,2.293
10863,2.109
10864,1.805
10865,1.472
10866,1.157
10867,1.107
10868,1.208
10869,1.298
10870,1.501
10871,1.707
10872,1.808
10873,1.805
10874,1.874
10875,2.054
10876,2.04
10877,1.855
10878,1.693
10879,1.704
10880,1.906
10881,2.058
10882,2.029
10883,1.895
10884,1.823
10885,1.91
10886,1.946
10887,1.96
10888,1.906
10889,1.892
10890,1.881
10891,1.826
10892,1.66
10893,1.874
10894,1.555
10895,1.295
10896,1.371
10897,1.66
10898,2.163
10899,2.488
10900,2.51
10901,2.333
10902,2.127
10903,1.971
10904,1.855
10905,1.761
10906,1.664
10907,1.591
10908,1.555
10909,1.581
10910,1.653
10911,1.743
10912,1.798
10913,1.783
10914,1.754
10915,1.707
10916,1.732
10917,1.769
10918,1.826
10919,1.902
10920,1.91
10921,1.939
10922,1.946
10923,1.935
10924,1.877
10925,1.816
10926,1.751
10927,1.722
10928,1.729
10929,1.779
10930,1.852
10931,1.906
10932,1.949
10933,1.957
10934,1.906
10935,1.823
10936,1.711
10937,1.631
10938,1.653
10939,1.714
10940,1.816
10941,1.888
10942,1.888
10943,1.834
10944,1.787
10945,1.743
10946,1.696
10947,1.66
10948,1.675
10949,1.798
10950,1.917
10951,1.982
10952,1.96
10953,1.917
10954,1.884
10955,1.895
10956,1.906
10957,1.91
10958,1.986
10959,1.975
10960,1.942
10961,1.884
10962,1.877
10963,1.881
10964,1.888
10965,1.892
10966,1.87
10967,1.848
10968,1.826
10969,1.794
10970,1.761
10971,1.754
10972,1.747
10973,1.732
10974,1.671
10975,1.599
10976,1.559
10977,1.595
10978,1.714
10979,1.787
10980,1.794
10981,1.787
10982,1.83
10983,1.888
10984,1.906
10985,1.852
10986,1.798
10987,1.776
10988,1.765
10989,1.779
10990,1.714
10991,1.66
10992,1.874
10993,2.224
10994,2.34
10995,2.257
10996,1.888
10997,2.083
10998,2.203
10999,2.098
11000,1.823
11001,1.552
11002,1.439
11003,1.411
11004,1.465
11005,1.566
11006,1.667
11007,1.743
