,0
0,1.874
1,1.921
2,1.928
3,1.913
4,1.917
5,1.913
6,1.928
7,1.895
8,1.863
9,1.845
10,1.852
11,1.859
12,1.855
13,1.852
14,1.837
15,1.834
16,1.79
17,1.761
18,1.772
19,1.805
20,1.863
21,1.924
22,1.96
23,1.949
24,1.921
25,1.888
26,1.841
27,1.805
28,1.779
29,1.801
30,1.808
31,1.758
32,1.657
33,1.544
34,1.418
35,1.313
36,1.378
37,1.443
38,1.494
39,1.613
40,2.3
41,2.767
42,2.763
43,2.691
44,2.402
45,2.04
46,1.418
47,1.045
48,1.157
49,1.259
50,1.978
51,2.528
52,2.749
53,2.72
54,2.43
55,1.986
56,1.479
57,1.052
58,1.009
59,1.125
60,1.222
61,1.306
62,1.378
63,1.479
64,1.685
65,1.812
66,1.877
67,1.902
68,1.895
69,1.902
70,1.946
71,2.022
72,2.087
73,2.112
74,2.145
75,2.141
76,2.163
77,2.163
78,2.145
79,2.083
80,2.015
81,1.924
82,1.848
83,1.798
84,1.747
85,1.722
86,1.678
87,1.675
88,1.667
89,1.664
90,1.646
91,1.646
92,1.66
93,1.685
94,1.718
95,1.718
96,1.732
97,1.718
98,1.693
99,1.66
100,1.664
101,1.704
102,1.769
103,1.852
104,1.902
105,1.921
106,1.921
107,1.895
108,1.888
109,1.902
110,1.939
111,1.964
112,1.975
113,1.964
114,1.939
115,1.899
116,1.866
117,1.841
118,1.798
119,1.765
120,1.74
121,1.718
122,1.7
123,1.751
124,1.808
125,1.859
126,1.888
127,1.902
128,1.899
129,1.87
130,1.837
131,1.834
132,1.823
133,1.826
134,1.83
135,1.841
136,1.841
137,1.819
138,1.816
139,1.801
140,1.776
141,1.747
142,1.718
143,1.707
144,1.722
145,1.747
146,1.783
147,1.874
148,2.098
149,2.148
150,2.058
151,1.942
152,1.841
153,1.798
154,1.747
155,1.704
156,1.714
157,1.769
158,1.823
159,1.83
160,1.826
161,1.798
162,1.761
163,1.747
164,1.718
165,1.718
166,1.751
167,1.794
168,1.816
169,1.826
170,1.834
171,1.841
172,1.845
173,1.855
174,1.841
175,1.823
176,1.834
177,1.877
178,1.939
179,1.96
180,1.96
181,1.921
182,1.866
183,1.794
184,1.74
185,1.736
186,1.769
187,1.826
188,1.874
189,1.884
190,1.881
191,1.855
192,1.848
193,1.845
194,1.837
195,1.83
196,1.837
197,1.826
198,1.826
199,1.805
200,1.765
201,1.732
202,1.714
203,1.722
204,1.747
205,1.765
206,1.826
207,1.848
208,1.769
209,1.722
210,1.725
211,1.772
212,1.845
213,1.888
214,1.913
215,1.931
216,1.949
217,1.939
218,1.924
219,1.924
220,1.906
221,1.884
222,1.859
223,1.816
224,1.779
225,1.79
226,1.808
227,1.845
228,1.863
229,1.859
230,1.845
231,1.83
232,1.816
233,1.801
234,1.79
235,1.761
236,1.758
237,1.732
238,1.732
239,1.754
240,1.765
241,1.776
242,1.758
243,1.736
244,1.729
245,1.732
246,1.758
247,1.819
248,1.888
249,1.96
250,2.011
251,2.018
252,2.004
253,1.982
254,1.964
255,1.928
256,1.892
257,1.848
258,1.798
259,1.736
260,1.7
261,1.685
262,1.675
263,1.693
264,1.743
265,1.805
266,1.866
267,1.906
268,1.924
269,1.902
270,1.87
271,1.83
272,1.808
273,1.798
274,1.779
275,1.776
276,1.772
277,1.776
278,1.79
279,1.83
280,1.845
281,1.859
282,1.863
283,1.837
284,1.834
285,1.834
286,1.841
287,1.841
288,1.848
289,1.888
290,1.935
291,1.928
292,1.87
293,1.754
294,1.57
295,1.266
296,1.345
297,1.418
298,1.902
299,2.575
300,2.734
301,2.239
302,1.751
303,1.638
304,1.722
305,1.704
306,1.566
307,1.436
308,1.602
309,2.033
310,2.387
311,2.405
312,2.282
313,2.138
314,2.051
315,1.881
316,1.649
317,1.382
318,1.186
319,1.201
320,1.291
321,1.411
322,1.548
323,1.671
324,1.718
325,1.798
326,1.874
327,1.975
328,2.054
329,2.058
330,2.051
331,2.025
332,2.022
333,2.022
334,1.989
335,1.975
336,1.964
337,1.96
338,2.083
339,2.087
340,2.043
341,1.957
342,1.892
343,1.841
344,1.805
345,1.761
346,1.74
347,1.732
348,1.718
349,1.685
350,1.653
351,1.624
352,1.613
353,1.624
354,1.638
355,1.653
356,1.664
357,1.66
358,1.704
359,1.74
360,1.776
361,1.816
362,1.852
363,1.888
364,1.895
365,1.884
366,1.863
367,1.848
368,1.877
369,1.913
370,1.953
371,1.978
372,1.989
373,1.982
374,1.935
375,1.884
376,1.848
377,1.826
378,1.816
379,1.805
380,1.805
381,1.808
382,1.819
383,1.834
384,1.826
385,1.801
386,1.779
387,1.776
388,1.787
389,1.779
390,1.801
391,1.798
392,1.816
393,1.837
394,1.834
395,1.845
396,1.83
397,1.805
398,1.801
399,1.79
400,1.79
401,1.794
402,1.798
403,1.798
404,1.769
405,1.725
406,1.74
407,1.816
408,1.924
409,2.091
410,2.138
411,2.069
412,2.0
413,1.931
414,1.852
415,1.751
416,1.653
417,1.584
418,1.584
419,1.62
420,1.678
421,1.725
422,1.761
423,1.801
424,1.848
425,1.866
426,1.888
427,1.892
428,1.874
429,1.859
430,1.852
431,1.852
432,1.852
433,1.855
434,1.841
435,1.845
436,1.852
437,1.859
438,1.866
439,1.881
440,1.884
441,1.899
442,1.881
443,1.83
444,1.83
445,1.837
446,1.823
447,1.83
448,1.819
449,1.805
450,1.794
451,1.769
452,1.772
453,1.808
454,1.819
455,1.837
456,1.848
457,1.855
458,1.863
459,1.888
460,1.874
461,1.863
462,1.877
463,1.899
464,1.906
465,1.895
466,1.841
467,1.805
468,1.747
469,1.696
470,1.671
471,1.638
472,1.631
473,1.62
474,1.642
475,1.74
476,1.848
477,1.884
478,1.895
479,1.899
480,1.902
481,1.913
482,1.906
483,1.848
484,1.816
485,1.826
486,1.83
487,1.877
488,1.892
489,1.87
490,1.874
491,1.888
492,1.877
493,1.866
494,1.845
495,1.816
496,1.841
497,1.855
498,1.841
499,1.823
500,1.765
501,1.736
502,1.776
503,1.816
504,1.823
505,1.823
506,1.823
507,1.805
508,1.801
509,1.798
510,1.79
511,1.79
512,1.812
513,1.826
514,1.819
515,1.852
516,1.87
517,1.888
518,1.834
519,1.819
520,1.877
521,1.942
522,1.939
523,1.888
524,1.837
525,1.779
526,1.769
527,1.801
528,1.816
529,1.801
530,1.787
531,1.783
532,1.794
533,1.812
534,1.812
535,1.79
536,1.754
537,1.758
538,1.783
539,1.798
540,1.826
541,1.917
542,1.96
543,1.957
544,1.942
545,1.931
546,1.888
547,1.837
548,1.819
549,1.808
550,1.816
551,1.83
552,1.823
553,1.754
554,1.682
555,1.628
556,1.599
557,1.584
558,1.396
559,1.4
560,1.461
561,1.508
562,1.877
563,2.34
564,2.673
565,2.756
566,2.597
567,2.25
568,1.953
569,1.754
570,1.411
571,1.114
572,1.222
573,1.736
574,2.637
575,2.763
576,2.742
577,2.188
578,1.609
579,1.309
580,1.273
581,1.291
582,1.262
583,1.208
584,1.288
585,1.367
586,1.429
587,1.479
588,1.53
589,1.566
590,1.711
591,1.978
592,2.13
593,2.188
594,2.17
595,2.163
596,2.181
597,2.213
598,2.203
599,2.387
600,2.449
601,2.217
602,2.087
603,2.007
604,1.953
605,1.902
606,1.823
607,1.808
608,1.722
609,1.646
610,1.559
611,1.512
612,1.501
613,1.512
614,1.519
615,1.548
616,1.577
617,1.628
618,1.646
619,1.678
620,1.682
621,1.646
622,1.642
623,1.682
624,1.722
625,1.895
626,1.837
627,1.902
628,1.902
629,1.913
630,1.989
631,2.029
632,2.029
633,2.025
634,1.968
635,1.917
636,1.863
637,1.798
638,1.79
639,1.783
640,1.812
641,1.841
642,1.837
643,1.881
644,1.953
645,1.996
646,1.978
647,1.924
648,1.837
649,1.787
650,1.754
651,1.758
652,1.769
653,1.765
654,1.794
655,1.794
656,1.805
657,1.808
658,1.808
659,1.772
660,1.772
661,1.79
662,1.787
663,1.79
664,1.808
665,1.794
666,1.783
667,1.74
668,1.722
669,1.704
670,1.671
671,1.812
672,2.094
673,2.174
674,2.091
675,2.087
676,2.098
677,2.076
678,1.986
679,1.888
680,1.801
681,1.732
682,1.682
683,1.62
684,1.584
685,1.566
686,1.566
687,1.595
688,1.624
689,1.66
690,1.707
691,1.776
692,1.826
693,1.863
694,1.892
695,1.899
696,1.899
697,1.895
698,1.888
699,1.902
700,1.91
701,1.881
702,1.848
703,1.859
704,1.913
705,1.935
706,1.931
707,1.928
708,1.895
709,1.866
710,1.826
711,1.801
712,1.787
713,1.776
714,1.779
715,1.772
716,1.79
717,1.808
718,1.812
719,1.845
720,1.855
721,1.884
722,1.895
723,1.866
724,1.855
725,1.841
726,1.83
727,1.845
728,1.834
729,1.83
730,1.772
731,1.74
732,1.729
733,1.707
734,1.711
735,1.725
736,1.718
737,1.732
738,1.769
739,1.812
740,1.859
741,1.874
742,1.892
743,1.892
744,1.881
745,1.877
746,1.859
747,1.863
748,1.866
749,1.888
750,1.899
751,1.902
752,1.892
753,1.881
754,1.888
755,1.881
756,1.863
757,1.845
758,1.83
759,1.816
760,1.805
761,1.783
762,1.776
763,1.74
764,1.711
765,1.696
766,1.7
767,1.74
768,1.743
769,1.761
770,1.779
771,1.787
772,1.798
773,1.819
774,1.841
775,1.863
776,1.866
777,1.881
778,1.884
779,1.881
780,1.874
781,1.877
782,1.87
783,1.87
784,1.899
785,1.917
786,1.942
787,1.953
788,1.939
789,1.917
790,1.866
791,1.837
792,1.83
793,1.805
794,1.816
795,1.826
796,1.826
797,1.816
798,1.787
799,1.758
800,1.743
801,1.729
802,1.747
803,1.769
804,1.779
805,1.816
806,1.826
807,1.837
808,1.848
809,1.859
810,1.87
811,1.881
812,1.866
813,1.83
814,1.754
815,1.646
816,1.544
817,1.468
818,1.505
819,1.519
820,1.454
821,1.501
822,1.541
823,1.852
824,2.268
825,2.459
826,2.38
827,2.402
828,2.593
829,2.423
830,1.66
831,1.103
832,1.233
833,2.011
834,2.76
835,2.763
836,2.383
837,1.801
838,1.602
839,1.682
840,1.736
841,1.635
842,1.523
843,1.436
844,1.317
845,1.168
846,1.262
847,1.342
848,1.411
849,1.461
850,1.512
851,1.555
852,1.664
853,1.996
854,2.185
855,2.311
856,2.405
857,2.456
858,2.474
859,2.416
860,2.326
861,2.232
862,2.134
863,2.04
864,1.931
865,1.826
866,1.736
867,1.66
868,1.595
869,1.555
870,1.53
871,1.512
872,1.497
873,1.501
874,1.537
875,1.584
876,1.613
877,1.646
878,1.66
879,1.667
880,1.671
881,1.685
882,1.732
883,1.787
884,1.855
885,1.917
886,1.935
887,1.989
888,2.004
889,1.996
890,2.007
891,1.982
892,1.953
893,1.946
894,1.928
895,1.91
896,1.888
897,1.874
898,1.881
899,1.888
900,1.866
901,1.852
902,1.808
903,1.79
904,1.772
905,1.751
906,1.729
907,1.711
908,1.696
909,1.689
910,1.693
911,1.693
912,1.7
913,1.722
914,1.754
915,1.808
916,1.837
917,1.881
918,1.902
919,1.913
920,1.906
921,1.888
922,1.884
923,1.881
924,1.855
925,1.808
926,1.787
927,1.776
928,1.736
929,1.638
930,1.678
931,1.978
932,2.192
933,2.17
934,2.098
935,2.058
936,1.989
937,1.906
938,1.866
939,1.855
940,1.816
941,1.776
942,1.747
943,1.714
944,1.675
945,1.642
946,1.62
947,1.609
948,1.617
949,1.66
950,1.729
951,1.751
952,1.787
953,1.808
954,1.826
955,1.823
956,1.83
957,1.834
958,1.848
959,1.877
960,1.902
961,1.931
962,1.935
963,1.939
964,1.931
965,1.939
966,1.939
967,1.917
968,1.881
969,1.841
970,1.83
971,1.845
972,1.823
973,1.776
974,1.747
975,1.714
976,1.704
977,1.736
978,1.765
979,1.787
980,1.823
981,1.852
982,1.87
983,1.855
984,1.826
985,1.823
986,1.826
987,1.841
988,1.859
989,1.859
990,1.855
991,1.863
992,1.855
993,1.837
994,1.834
995,1.841
996,1.855
997,1.87
998,1.834
999,1.798
1000,1.776
1001,1.761
1002,1.761
1003,1.772
1004,1.805
1005,1.805
1006,1.812
1007,1.801
1008,1.787
1009,1.794
1010,1.823
1011,1.855
1012,1.859
1013,1.859
1014,1.845
1015,1.837
1016,1.834
1017,1.83
1018,1.841
1019,1.845
1020,1.859
1021,1.859
1022,1.837
1023,1.808
1024,1.798
1025,1.783
1026,1.79
1027,1.798
1028,1.826
1029,1.841
1030,1.826
1031,1.779
1032,1.772
1033,1.779
1034,1.794
1035,1.816
1036,1.852
1037,1.881
1038,1.924
1039,1.968
1040,1.986
1041,1.971
1042,1.924
1043,1.866
1044,1.798
1045,1.751
1046,1.722
1047,1.714
1048,1.729
1049,1.751
1050,1.769
1051,1.783
1052,1.816
1053,1.852
1054,1.877
1055,1.877
1056,1.888
1057,1.906
1058,1.888
1059,1.845
1060,1.783
1061,1.732
1062,1.732
1063,1.729
1064,1.714
1065,1.736
1066,1.772
1067,1.819
1068,1.855
1069,1.899
1070,1.91
1071,1.942
1072,1.917
1073,1.888
1074,1.888
1075,1.895
1076,1.906
1077,1.921
1078,1.863
1079,1.826
1080,1.772
1081,1.501
1082,1.273
1083,1.335
1084,1.403
1085,1.461
1086,1.566
1087,2.376
1088,2.763
1089,2.763
1090,2.651
1091,2.228
1092,2.0
1093,1.805
1094,1.617
1095,1.28
1096,1.06
1097,1.168
1098,1.483
1099,2.311
1100,2.662
1101,2.59
1102,2.217
1103,1.859
1104,1.678
1105,1.552
1106,1.345
1107,1.11
1108,1.186
1109,1.28
1110,1.353
1111,1.418
1112,1.476
1113,1.515
1114,1.555
1115,1.591
1116,1.779
1117,1.964
1118,2.062
1119,2.127
1120,2.213
1121,2.308
1122,2.358
1123,2.365
1124,2.318
1125,2.275
1126,2.279
1127,2.275
1128,2.224
1129,2.134
1130,1.978
1131,1.808
1132,1.7
1133,1.628
1134,1.599
1135,1.599
1136,1.606
1137,1.599
1138,1.591
1139,1.573
1140,1.541
1141,1.53
1142,1.544
1143,1.559
1144,1.588
1145,1.606
1146,1.649
1147,1.714
1148,1.754
1149,1.801
1150,1.841
1151,1.877
1152,1.921
1153,1.982
1154,1.971
1155,1.975
1156,1.975
1157,1.939
1158,1.884
1159,1.83
1160,1.794
1161,1.794
1162,1.794
1163,1.79
1164,1.805
1165,1.805
1166,1.798
1167,1.798
1168,1.819
1169,1.859
1170,1.913
1171,1.931
1172,1.913
1173,1.884
1174,1.841
1175,1.801
1176,1.79
1177,1.808
1178,1.845
1179,1.877
1180,1.874
1181,1.805
1182,1.823
1183,1.877
1184,1.939
1185,1.942
1186,1.884
1187,1.79
1188,1.725
1189,1.649
1190,1.624
1191,1.559
1192,1.617
1193,1.917
1194,2.101
1195,2.036
1196,1.978
1197,2.033
1198,2.069
1199,2.018
1200,1.906
1201,1.798
1202,1.74
1203,1.74
1204,1.711
1205,1.667
1206,1.646
1207,1.657
1208,1.678
1209,1.714
1210,1.747
1211,1.787
1212,1.83
1213,1.855
1214,1.852
1215,1.834
1216,1.83
1217,1.852
1218,1.877
1219,1.892
1220,1.902
1221,1.892
1222,1.906
1223,1.906
1224,1.877
1225,1.837
1226,1.776
1227,1.732
1228,1.74
1229,1.747
1230,1.761
1231,1.805
1232,1.812
1233,1.808
1234,1.808
1235,1.801
1236,1.787
1237,1.787
1238,1.816
1239,1.845
1240,1.874
1241,1.892
1242,1.892
1243,1.884
1244,1.888
1245,1.874
1246,1.859
1247,1.834
1248,1.83
1249,1.834
1250,1.845
1251,1.866
1252,1.877
1253,1.888
1254,1.874
1255,1.866
1256,1.845
1257,1.83
1258,1.823
1259,1.826
1260,1.834
1261,1.826
1262,1.816
1263,1.834
1264,1.845
1265,1.855
1266,1.87
1267,1.899
1268,1.906
1269,1.91
1270,1.895
1271,1.834
1272,1.772
1273,1.711
1274,1.678
1275,1.646
1276,1.66
1277,1.671
1278,1.689
1279,1.696
1280,1.678
1281,1.667
1282,1.685
1283,1.714
1284,1.747
1285,1.798
1286,1.837
1287,1.87
1288,1.895
1289,1.928
1290,1.942
1291,1.921
1292,1.91
1293,1.91
1294,1.928
1295,1.949
1296,1.968
1297,1.939
1298,1.946
1299,1.971
1300,1.978
1301,1.968
1302,1.921
1303,1.888
1304,1.855
1305,1.808
1306,1.758
1307,1.732
1308,1.729
1309,1.754
1310,1.783
1311,1.787
1312,1.761
1313,1.743
1314,1.725
1315,1.693
1316,1.671
1317,1.696
1318,1.736
1319,1.765
1320,1.808
1321,1.877
1322,1.939
1323,1.953
1324,1.942
1325,1.942
1326,1.953
1327,1.957
1328,1.939
1329,1.902
1330,1.866
1331,1.848
1332,1.845
1333,1.848
1334,1.826
1335,1.779
1336,1.732
1337,1.682
1338,1.678
1339,1.729
1340,1.729
1341,1.714
1342,1.7
1343,1.729
1344,1.671
1345,1.353
1346,1.411
1347,1.468
1348,1.848
1349,2.279
1350,2.525
1351,2.474
1352,2.322
1353,2.134
1354,2.0
1355,1.845
1356,1.548
1357,1.273
1358,1.291
1359,1.736
1360,2.166
1361,2.336
1362,2.391
1363,2.467
1364,2.434
1365,2.123
1366,1.667
1367,1.309
1368,1.081
1369,1.118
1370,1.212
1371,1.309
1372,1.378
1373,1.501
1374,1.624
1375,1.685
1376,1.729
1377,1.758
1378,1.816
1379,1.921
1380,2.025
1381,2.105
1382,2.141
1383,2.127
1384,2.13
1385,2.123
1386,2.123
1387,2.141
1388,2.163
1389,2.159
1390,2.123
1391,2.058
1392,1.968
1393,1.899
1394,1.855
1395,1.801
1396,1.765
1397,1.714
1398,1.66
1399,1.624
1400,1.613
1401,1.602
1402,1.595
1403,1.602
1404,1.613
1405,1.609
1406,1.573
1407,1.559
1408,1.599
1409,1.682
1410,1.765
1411,1.823
1412,1.852
1413,1.852
1414,1.87
1415,1.895
1416,1.91
1417,1.921
1418,1.921
1419,1.921
1420,1.921
1421,1.899
1422,1.87
1423,1.859
1424,1.874
1425,1.884
1426,1.899
1427,1.892
1428,1.884
1429,1.87
1430,1.863
1431,1.837
1432,1.805
1433,1.798
1434,1.83
1435,1.859
1436,1.859
1437,1.834
1438,1.805
1439,1.808
1440,1.837
1441,1.852
1442,1.863
1443,1.841
1444,1.816
1445,1.801
1446,1.779
1447,1.758
1448,1.74
1449,1.74
1450,1.718
1451,1.675
1452,1.671
1453,1.808
1454,2.08
1455,2.156
1456,2.015
1457,1.899
1458,1.881
1459,1.899
1460,1.848
1461,1.747
1462,1.704
1463,1.751
1464,1.816
1465,1.837
1466,1.819
1467,1.79
1468,1.787
1469,1.779
1470,1.718
1471,1.693
1472,1.714
1473,1.743
1474,1.787
1475,1.823
1476,1.841
1477,1.855
1478,1.863
1479,1.855
1480,1.859
1481,1.866
1482,1.863
1483,1.863
1484,1.863
1485,1.852
1486,1.852
1487,1.852
1488,1.855
1489,1.855
1490,1.87
1491,1.87
1492,1.863
1493,1.863
1494,1.87
1495,1.87
1496,1.866
1497,1.855
1498,1.823
1499,1.779
1500,1.761
1501,1.765
1502,1.787
1503,1.805
1504,1.837
1505,1.87
1506,1.881
1507,1.866
1508,1.845
1509,1.826
1510,1.808
1511,1.79
1512,1.772
1513,1.729
1514,1.7
1515,1.7
1516,1.7
1517,1.718
1518,1.747
1519,1.779
1520,1.794
1521,1.808
1522,1.812
1523,1.83
1524,1.848
1525,1.902
1526,1.964
1527,2.007
1528,2.018
1529,1.989
1530,1.946
1531,1.892
1532,1.845
1533,1.819
1534,1.816
1535,1.801
1536,1.808
1537,1.816
1538,1.816
1539,1.812
1540,1.801
1541,1.801
1542,1.826
1543,1.855
1544,1.87
1545,1.863
1546,1.848
1547,1.841
1548,1.83
1549,1.776
1550,1.729
1551,1.718
1552,1.751
1553,1.783
1554,1.798
1555,1.805
1556,1.776
1557,1.758
1558,1.751
1559,1.751
1560,1.747
1561,1.765
1562,1.812
1563,1.87
1564,1.902
1565,1.895
1566,1.884
1567,1.863
1568,1.823
1569,1.812
1570,1.826
1571,1.841
1572,1.852
1573,1.852
1574,1.863
1575,1.866
1576,1.892
1577,1.913
1578,1.921
1579,1.895
1580,1.841
1581,1.819
1582,1.819
1583,1.826
1584,1.801
1585,1.761
1586,1.74
1587,1.769
1588,1.812
1589,1.87
1590,1.892
1591,1.892
1592,1.877
1593,1.87
1594,1.877
1595,1.874
1596,1.845
1597,1.783
1598,1.736
1599,1.725
1600,1.765
1601,1.772
1602,1.729
1603,1.671
1604,1.628
1605,1.613
1606,1.472
1607,1.403
1608,1.494
1609,2.004
1610,2.525
1611,2.68
1612,2.445
1613,1.968
1614,1.812
1615,1.982
1616,2.0
1617,1.664
1618,1.309
1619,1.389
1620,1.779
1621,2.221
1622,2.514
1623,2.528
1624,2.304
1625,2.051
1626,1.826
1627,1.649
1628,1.389
1629,1.042
1630,1.128
1631,1.23
1632,1.306
1633,1.378
1634,1.439
1635,1.494
1636,1.577
1637,1.743
1638,1.859
1639,1.931
1640,2.022
1641,2.083
1642,2.127
1643,2.087
1644,2.036
1645,2.025
1646,2.062
1647,2.116
1648,2.177
1649,2.199
1650,2.188
1651,2.166
1652,2.123
1653,2.087
1654,2.051
1655,1.989
1656,1.917
1657,1.834
1658,1.747
1659,1.678
1660,1.609
1661,1.548
1662,1.526
1663,1.519
1664,1.497
1665,1.49
1666,1.508
1667,1.526
1668,1.581
1669,1.609
1670,1.617
1671,1.624
1672,1.664
1673,1.718
1674,1.805
1675,1.874
1676,1.935
1677,1.978
1678,2.018
1679,2.033
1680,2.007
1681,2.004
1682,2.0
1683,1.971
1684,1.921
1685,1.888
1686,1.855
1687,1.866
1688,1.877
1689,1.866
1690,1.87
1691,1.855
1692,1.83
1693,1.812
1694,1.808
1695,1.816
1696,1.816
1697,1.801
1698,1.794
1699,1.801
1700,1.798
1701,1.794
1702,1.816
1703,1.855
1704,1.888
1705,1.888
1706,1.866
1707,1.852
1708,1.841
1709,1.819
1710,1.805
1711,1.783
1712,1.707
1713,1.599
1714,1.552
1715,1.584
1716,1.837
1717,2.091
1718,2.083
1719,2.0
1720,1.96
1721,1.91
1722,1.837
1723,1.772
1724,1.714
1725,1.704
1726,1.747
1727,1.79
1728,1.808
1729,1.808
1730,1.79
1731,1.787
1732,1.826
1733,1.855
1734,1.874
1735,1.855
1736,1.819
1737,1.816
1738,1.816
1739,1.805
1740,1.798
1741,1.794
1742,1.801
1743,1.852
1744,1.87
1745,1.855
1746,1.892
1747,1.921
1748,1.906
1749,1.877
1750,1.845
1751,1.819
1752,1.83
1753,1.805
1754,1.787
1755,1.801
1756,1.787
1757,1.805
1758,1.855
1759,1.866
1760,1.888
1761,1.895
1762,1.87
1763,1.834
1764,1.801
1765,1.79
1766,1.808
1767,1.83
1768,1.845
1769,1.852
1770,1.812
1771,1.769
1772,1.772
1773,1.736
1774,1.722
1775,1.74
1776,1.725
1777,1.725
1778,1.751
1779,1.729
1780,1.74
1781,1.754
1782,1.783
1783,1.877
1784,1.975
1785,2.029
1786,2.033
1787,1.993
1788,1.942
1789,1.939
1790,1.942
1791,1.935
1792,1.949
1793,1.931
1794,1.874
1795,1.823
1796,1.794
1797,1.765
1798,1.765
1799,1.751
1800,1.707
1801,1.704
1802,1.704
1803,1.693
1804,1.685
1805,1.671
1806,1.696
1807,1.74
1808,1.754
1809,1.758
1810,1.751
1811,1.747
1812,1.758
1813,1.761
1814,1.801
1815,1.866
1816,1.924
1817,1.978
1818,2.029
1819,2.058
1820,2.043
1821,2.0
1822,1.924
1823,1.866
1824,1.83
1825,1.823
1826,1.837
1827,1.845
1828,1.834
1829,1.805
1830,1.765
1831,1.765
1832,1.826
1833,1.881
1834,1.913
1835,1.939
1836,1.949
1837,1.899
1838,1.812
1839,1.729
1840,1.7
1841,1.718
1842,1.74
1843,1.761
1844,1.754
1845,1.732
1846,1.711
1847,1.736
1848,1.74
1849,1.751
1850,1.79
1851,1.855
1852,1.924
1853,1.993
1854,2.033
1855,2.004
1856,1.964
1857,1.924
1858,1.91
1859,2.0
1860,1.689
1861,1.519
1862,1.552
1863,1.653
1864,1.704
1865,1.704
1866,1.635
1867,1.458
1868,1.4
1869,1.465
1870,1.508
1871,1.552
1872,1.845
1873,2.456
1874,2.763
1875,2.763
1876,2.687
1877,2.228
1878,1.671
1879,1.038
1880,1.154
1881,1.251
1882,2.224
1883,2.763
1884,2.763
1885,2.723
1886,2.347
1887,1.841
1888,1.638
1889,1.595
1890,1.472
1891,1.327
1892,1.219
1893,1.107
1894,1.136
1895,1.233
1896,1.32
1897,1.389
1898,1.454
1899,1.501
1900,1.541
1901,1.581
1902,1.649
1903,1.899
1904,2.065
1905,2.177
1906,2.322
1907,2.467
1908,2.532
1909,2.579
1910,2.579
1911,2.517
1912,2.423
1913,2.268
1914,2.087
1915,1.935
1916,1.805
1917,1.667
1918,1.562
1919,1.479
1920,1.418
1921,1.392
1922,1.389
1923,1.429
1924,1.49
1925,1.552
1926,1.599
1927,1.624
1928,1.581
1929,1.548
1930,1.566
1931,1.624
1932,1.664
1933,1.664
1934,1.704
1935,1.812
1936,1.892
1937,1.913
1938,1.928
1939,1.975
1940,2.015
1941,2.036
1942,2.022
1943,1.986
1944,2.004
1945,2.007
1946,1.978
1947,1.946
1948,1.91
1949,1.888
1950,1.87
1951,1.841
1952,1.808
1953,1.808
1954,1.805
1955,1.779
1956,1.732
1957,1.693
1958,1.657
1959,1.66
1960,1.678
1961,1.711
1962,1.751
1963,1.779
1964,1.812
1965,1.866
1966,1.895
1967,1.91
1968,1.91
1969,1.939
1970,1.957
1971,1.968
1972,1.949
1973,1.949
1974,1.91
1975,1.747
1976,1.606
1977,1.798
1978,2.134
1979,2.166
1980,2.0
1981,1.91
1982,1.863
1983,1.848
1984,1.83
1985,1.754
1986,1.704
1987,1.707
1988,1.689
1989,1.635
1990,1.62
1991,1.638
1992,1.646
1993,1.638
1994,1.624
1995,1.649
1996,1.693
1997,1.714
1998,1.736
1999,1.783
2000,1.848
2001,1.902
2002,1.935
2003,1.949
2004,1.971
2005,1.989
2006,2.0
2007,2.015
2008,2.007
2009,1.982
2010,1.957
2011,1.931
2012,1.899
2013,1.852
2014,1.819
2015,1.798
2016,1.772
2017,1.769
2018,1.765
2019,1.761
2020,1.787
2021,1.787
2022,1.801
2023,1.812
2024,1.812
2025,1.805
2026,1.79
2027,1.776
2028,1.769
2029,1.783
2030,1.79
2031,1.787
2032,1.79
2033,1.801
2034,1.79
2035,1.758
2036,1.729
2037,1.732
2038,1.765
2039,1.819
2040,1.87
2041,1.913
2042,1.957
2043,1.968
2044,1.975
2045,1.982
2046,1.971
2047,1.968
2048,1.953
2049,1.931
2050,1.892
2051,1.848
2052,1.812
2053,1.79
2054,1.765
2055,1.74
2056,1.7
2057,1.682
2058,1.685
2059,1.7
2060,1.725
2061,1.74
2062,1.74
2063,1.743
2064,1.725
2065,1.685
2066,1.671
2067,1.675
2068,1.707
2069,1.776
2070,1.866
2071,1.942
2072,1.986
2073,2.011
2074,2.025
2075,2.004
2076,1.978
2077,1.946
2078,1.899
2079,1.859
2080,1.845
2081,1.837
2082,1.845
2083,1.859
2084,1.874
2085,1.91
2086,1.91
2087,1.899
2088,1.866
2089,1.819
2090,1.783
2091,1.765
2092,1.758
2093,1.772
2094,1.783
2095,1.79
2096,1.79
2097,1.79
2098,1.826
2099,1.855
2100,1.859
2101,1.852
2102,1.823
2103,1.779
2104,1.765
2105,1.783
2106,1.798
2107,1.837
2108,1.83
2109,1.805
2110,1.779
2111,1.761
2112,1.747
2113,1.761
2114,1.805
2115,1.841
2116,1.852
2117,1.859
2118,1.83
2119,1.805
2120,1.834
2121,1.848
2122,1.855
2123,1.845
2124,1.805
2125,1.707
2126,1.595
2127,1.494
2128,1.378
2129,1.432
2130,1.487
2131,1.534
2132,1.577
2133,2.235
2134,2.763
2135,2.76
2136,2.763
2137,2.553
2138,1.696
2139,0.9657
2140,1.078
2141,1.36
2142,2.152
2143,2.691
2144,2.582
2145,2.076
2146,1.776
2147,1.808
2148,1.906
2149,1.83
2150,1.646
2151,1.479
2152,1.342
2153,1.154
2154,1.183
2155,1.273
2156,1.353
2157,1.418
2158,1.472
2159,1.515
2160,1.559
2161,1.591
2162,1.874
2163,2.134
2164,2.242
2165,2.289
2166,2.347
2167,2.409
2168,2.405
2169,2.329
2170,2.268
2171,2.253
2172,2.239
2173,2.177
2174,2.076
2175,1.946
2176,1.83
2177,1.736
2178,1.635
2179,1.552
2180,1.49
2181,1.439
2182,1.418
2183,1.425
2184,1.483
2185,1.541
2186,1.562
2187,1.577
2188,1.599
2189,1.649
2190,1.682
2191,1.693
2192,1.7
2193,1.722
2194,1.765
2195,1.823
2196,1.888
2197,1.946
2198,1.971
2199,1.96
2200,1.949
2201,1.942
2202,1.949
2203,1.96
2204,1.964
2205,1.928
2206,1.895
2207,1.87
2208,1.863
2209,1.87
2210,1.874
2211,1.877
2212,1.874
2213,1.863
2214,1.841
2215,1.837
2216,1.826
2217,1.834
2218,1.845
2219,1.859
2220,1.863
2221,1.855
2222,1.845
2223,1.841
2224,1.841
2225,1.841
2226,1.834
2227,1.808
2228,1.787
2229,1.783
2230,1.772
2231,1.751
2232,1.722
2233,1.718
2234,1.689
2235,1.562
2236,1.479
2237,1.689
2238,2.018
2239,2.08
2240,1.993
2241,1.96
2242,1.993
2243,1.975
2244,1.953
2245,1.888
2246,1.812
2247,1.816
2248,1.805
2249,1.776
2250,1.729
2251,1.704
2252,1.7
2253,1.711
2254,1.711
2255,1.718
2256,1.747
2257,1.794
2258,1.845
2259,1.852
2260,1.852
2261,1.859
2262,1.87
2263,1.884
2264,1.899
2265,1.928
2266,1.957
2267,1.971
2268,1.968
2269,1.96
2270,1.921
2271,1.881
2272,1.852
2273,1.837
2274,1.826
2275,1.812
2276,1.779
2277,1.732
2278,1.696
2279,1.682
2280,1.689
2281,1.682
2282,1.696
2283,1.732
2284,1.787
2285,1.841
2286,1.895
2287,1.924
2288,1.928
2289,1.906
2290,1.892
2291,1.852
2292,1.816
2293,1.805
2294,1.808
2295,1.83
2296,1.863
2297,1.877
2298,1.874
2299,1.859
2300,1.841
2301,1.837
2302,1.816
2303,1.83
2304,1.837
2305,1.834
2306,1.816
2307,1.794
2308,1.765
2309,1.758
2310,1.754
2311,1.772
2312,1.787
2313,1.805
2314,1.823
2315,1.819
2316,1.812
2317,1.812
2318,1.834
2319,1.852
2320,1.852
2321,1.841
2322,1.819
2323,1.808
2324,1.783
2325,1.783
2326,1.787
2327,1.805
2328,1.826
2329,1.852
2330,1.855
2331,1.855
2332,1.855
2333,1.877
2334,1.91
2335,1.902
2336,1.899
2337,1.888
2338,1.87
2339,1.834
2340,1.805
2341,1.794
2342,1.801
2343,1.805
2344,1.808
2345,1.823
2346,1.845
2347,1.877
2348,1.899
2349,1.884
2350,1.852
2351,1.808
2352,1.779
2353,1.761
2354,1.754
2355,1.743
2356,1.736
2357,1.74
2358,1.769
2359,1.812
2360,1.826
2361,1.772
2362,1.743
2363,1.783
2364,1.874
2365,1.917
2366,1.917
2367,1.884
2368,1.87
2369,1.866
2370,1.874
2371,1.87
2372,1.855
2373,1.855
2374,1.866
2375,1.866
2376,1.874
2377,1.866
2378,1.855
2379,1.848
2380,1.855
2381,1.852
2382,1.834
2383,1.823
2384,1.823
2385,1.837
2386,1.823
2387,1.79
2388,1.729
2389,1.657
2390,1.487
2391,1.302
2392,1.382
2393,1.443
2394,1.494
2395,1.921
2396,2.64
2397,2.763
2398,2.626
2399,2.166
2400,1.779
2401,1.657
2402,1.772
2403,1.881
2404,1.591
2405,1.233
2406,1.403
2407,2.0
2408,2.6
2409,2.731
2410,2.478
2411,2.047
2412,1.711
2413,1.57
2414,1.512
2415,1.4
2416,1.23
2417,1.175
2418,1.27
2419,1.345
2420,1.418
2421,1.468
2422,1.515
2423,1.559
2424,1.765
2425,1.902
2426,1.939
2427,1.953
2428,2.004
2429,2.083
2430,2.156
2431,2.217
2432,2.264
2433,2.308
2434,2.318
2435,2.297
2436,2.257
2437,2.195
2438,2.116
2439,2.033
2440,1.931
2441,1.845
2442,1.783
2443,1.711
2444,1.664
2445,1.613
2446,1.559
2447,1.534
2448,1.53
2449,1.57
2450,1.646
2451,1.711
2452,1.736
2453,1.747
2454,1.736
2455,1.704
2456,1.631
2457,1.573
2458,1.57
2459,1.606
2460,1.646
2461,1.685
2462,1.729
2463,1.776
2464,1.808
2465,1.819
2466,1.841
2467,1.877
2468,1.931
2469,1.968
2470,1.982
2471,1.982
2472,1.968
2473,1.949
2474,1.928
2475,1.902
2476,1.888
2477,1.884
2478,1.888
2479,1.888
2480,1.888
2481,1.895
2482,1.906
2483,1.921
2484,1.928
2485,1.942
2486,1.913
2487,1.899
2488,1.888
2489,1.892
2490,1.892
2491,1.874
2492,1.837
2493,1.772
2494,1.711
2495,1.66
2496,1.642
2497,1.497
2498,1.45
2499,1.722
2500,2.0
2501,1.96
2502,1.845
2503,1.906
2504,1.993
2505,2.004
2506,1.921
2507,1.808
2508,1.718
2509,1.722
2510,1.751
2511,1.729
2512,1.718
2513,1.725
2514,1.729
2515,1.729
2516,1.736
2517,1.769
2518,1.801
2519,1.826
2520,1.859
2521,1.895
2522,1.902
2523,1.902
2524,1.902
2525,1.906
2526,1.899
2527,1.902
2528,1.906
2529,1.899
2530,1.899
2531,1.902
2532,1.895
2533,1.855
2534,1.812
2535,1.765
2536,1.754
2537,1.732
2538,1.747
2539,1.783
2540,1.823
2541,1.845
2542,1.841
2543,1.823
2544,1.798
2545,1.783
2546,1.783
2547,1.798
2548,1.805
2549,1.812
2550,1.834
2551,1.841
2552,1.863
2553,1.87
2554,1.877
2555,1.877
2556,1.866
2557,1.834
2558,1.805
2559,1.779
2560,1.754
2561,1.761
2562,1.779
2563,1.826
2564,1.866
2565,1.874
2566,1.837
2567,1.812
2568,1.794
2569,1.787
2570,1.798
2571,1.812
2572,1.841
2573,1.884
2574,1.924
2575,1.935
2576,1.928
2577,1.888
2578,1.819
2579,1.772
2580,1.761
2581,1.769
2582,1.779
2583,1.798
2584,1.798
2585,1.816
2586,1.816
2587,1.83
2588,1.845
2589,1.848
2590,1.841
2591,1.826
2592,1.816
2593,1.798
2594,1.776
2595,1.783
2596,1.798
2597,1.812
2598,1.823
2599,1.826
2600,1.83
2601,1.848
2602,1.834
2603,1.812
2604,1.819
2605,1.819
2606,1.841
2607,1.855
2608,1.866
2609,1.902
2610,1.917
2611,1.902
2612,1.866
2613,1.834
2614,1.808
2615,1.794
2616,1.787
2617,1.808
2618,1.812
2619,1.761
2620,1.714
2621,1.7
2622,1.732
2623,1.794
2624,1.848
2625,1.888
2626,1.928
2627,1.845
2628,1.798
2629,1.79
2630,1.855
2631,1.91
2632,1.931
2633,1.906
2634,1.888
2635,1.924
2636,1.957
2637,1.949
2638,1.895
2639,1.845
2640,1.816
2641,1.787
2642,1.769
2643,1.732
2644,1.714
2645,1.722
2646,1.772
2647,1.83
2648,1.834
2649,1.805
2650,1.74
2651,1.693
2652,1.591
2653,1.317
2654,1.389
2655,1.45
2656,1.877
2657,2.387
2658,2.597
2659,2.365
2660,2.058
2661,1.953
2662,1.978
2663,1.841
2664,1.682
2665,1.566
2666,1.439
2667,1.534
2668,1.845
2669,2.188
2670,2.358
2671,2.474
2672,2.459
2673,2.279
2674,1.986
2675,1.675
2676,1.385
2677,1.139
2678,1.1
2679,1.204
2680,1.298
2681,1.364
2682,1.425
2683,1.476
2684,1.526
2685,1.66
2686,1.787
2687,1.902
2688,2.025
2689,2.116
2690,2.156
2691,2.145
2692,2.101
2693,2.04
2694,2.007
2695,2.054
2696,2.13
2697,2.188
2698,2.203
2699,2.166
2700,2.119
2701,2.072
2702,1.986
2703,1.906
2704,1.83
2705,1.776
2706,1.729
2707,1.685
2708,1.667
2709,1.664
2710,1.671
2711,1.678
2712,1.66
2713,1.624
2714,1.581
2715,1.577
2716,1.599
2717,1.613
2718,1.631
2719,1.653
2720,1.685
2721,1.725
2722,1.754
2723,1.787
2724,1.816
2725,1.83
2726,1.826
2727,1.808
2728,1.812
2729,1.819
2730,1.874
2731,1.953
2732,2.011
2733,2.04
2734,2.029
2735,2.0
2736,1.978
2737,1.953
2738,1.931
2739,1.906
2740,1.881
2741,1.859
2742,1.845
2743,1.852
2744,1.845
2745,1.834
2746,1.812
2747,1.779
2748,1.754
2749,1.736
2750,1.722
2751,1.725
2752,1.725
2753,1.729
2754,1.725
2755,1.693
2756,1.664
2757,1.638
2758,1.689
2759,1.711
2760,1.942
2761,2.13
2762,2.163
2763,2.094
2764,1.971
2765,1.902
2766,1.924
2767,1.899
2768,1.848
2769,1.808
2770,1.794
2771,1.783
2772,1.754
2773,1.736
2774,1.718
2775,1.682
2776,1.66
2777,1.671
2778,1.725
2779,1.779
2780,1.834
2781,1.877
2782,1.895
2783,1.888
2784,1.874
2785,1.866
2786,1.881
2787,1.888
2788,1.91
2789,1.902
2790,1.902
2791,1.895
2792,1.877
2793,1.874
2794,1.855
2795,1.841
2796,1.823
2797,1.798
2798,1.779
2799,1.758
2800,1.729
2801,1.729
2802,1.732
2803,1.765
2804,1.772
2805,1.79
2806,1.808
2807,1.816
2808,1.819
2809,1.841
2810,1.863
2811,1.884
2812,1.902
2813,1.899
2814,1.884
2815,1.874
2816,1.874
2817,1.866
2818,1.866
2819,1.866
2820,1.859
2821,1.845
2822,1.819
2823,1.79
2824,1.765
2825,1.743
2826,1.743
2827,1.743
2828,1.725
2829,1.718
2830,1.711
2831,1.725
2832,1.729
2833,1.751
2834,1.772
2835,1.798
2836,1.83
2837,1.866
2838,1.888
2839,1.91
2840,1.921
2841,1.924
2842,1.928
2843,1.917
2844,1.924
2845,1.928
2846,1.917
2847,1.892
2848,1.863
2849,1.837
2850,1.826
2851,1.841
2852,1.848
2853,1.855
2854,1.826
2855,1.819
2856,1.801
2857,1.783
2858,1.772
2859,1.769
2860,1.765
2861,1.769
2862,1.769
2863,1.765
2864,1.783
2865,1.805
2866,1.859
2867,1.892
2868,1.906
2869,1.895
2870,1.863
2871,1.859
2872,1.848
2873,1.805
2874,1.758
2875,1.722
2876,1.725
2877,1.751
2878,1.787
2879,1.808
2880,1.83
2881,1.866
2882,1.884
2883,1.888
2884,1.881
2885,1.859
2886,1.823
2887,1.808
2888,1.798
2889,1.79
2890,1.79
2891,1.805
2892,1.83
2893,1.834
2894,1.826
2895,1.855
2896,1.921
2897,1.968
2898,1.971
2899,1.931
2900,1.895
2901,1.87
2902,1.859
2903,1.841
2904,1.79
2905,1.74
2906,1.707
2907,1.685
2908,1.631
2909,1.606
2910,1.631
2911,1.667
2912,1.664
2913,1.454
2914,1.425
2915,1.483
2916,1.693
2917,2.047
2918,2.405
2919,2.572
2920,2.528
2921,2.449
2922,2.224
2923,1.776
2924,1.364
2925,1.291
2926,1.432
2927,1.808
2928,2.355
2929,2.76
2930,2.763
2931,2.575
2932,2.134
2933,1.711
2934,1.396
2935,1.201
2936,1.027
2937,1.078
2938,1.186
2939,1.277
2940,1.353
2941,1.418
2942,1.472
2943,1.523
2944,1.555
2945,1.613
2946,1.841
2947,2.0
2948,2.098
2949,2.156
2950,2.221
2951,2.268
2952,2.282
2953,2.279
2954,2.293
2955,2.3
2956,2.3
2957,2.257
2958,2.177
2959,2.076
2960,1.968
2961,1.863
2962,1.776
2963,1.711
2964,1.638
2965,1.584
2966,1.577
2967,1.584
2968,1.562
2969,1.53
2970,1.548
2971,1.599
2972,1.642
2973,1.653
2974,1.631
2975,1.584
2976,1.544
2977,1.552
2978,1.609
2979,1.649
2980,1.682
2981,1.707
2982,1.787
2983,1.834
2984,1.855
2985,1.884
2986,1.906
2987,1.939
2988,1.953
2989,1.964
2990,1.975
2991,1.986
2992,1.978
2993,1.996
2994,2.011
2995,2.015
2996,2.007
2997,2.0
2998,2.004
2999,1.982
3000,1.953
3001,1.921
3002,1.881
3003,1.859
3004,1.837
3005,1.805
3006,1.765
3007,1.758
3008,1.772
3009,1.754
3010,1.714
3011,1.664
3012,1.624
3013,1.595
3014,1.599
3015,1.62
3016,1.617
3017,1.552
3018,1.523
3019,1.819
3020,2.21
3021,2.257
3022,2.076
3023,2.015
3024,2.098
3025,2.065
3026,1.957
3027,1.776
3028,1.696
3029,1.722
3030,1.765
3031,1.812
3032,1.823
3033,1.798
3034,1.761
3035,1.718
3036,1.714
3037,1.714
3038,1.718
3039,1.729
3040,1.718
3041,1.714
3042,1.707
3043,1.732
3044,1.772
3045,1.79
3046,1.826
3047,1.87
3048,1.906
3049,1.957
3050,1.993
3051,1.993
3052,1.964
3053,1.924
3054,1.899
3055,1.884
3056,1.874
3057,1.848
3058,1.866
3059,1.892
3060,1.91
3061,1.895
3062,1.845
3063,1.808
3064,1.794
3065,1.801
3066,1.819
3067,1.823
3068,1.852
3069,1.87
3070,1.852
3071,1.812
3072,1.772
3073,1.74
3074,1.729
3075,1.729
3076,1.74
3077,1.729
3078,1.718
3079,1.725
3080,1.718
3081,1.732
3082,1.787
3083,1.899
3084,1.953
3085,1.942
3086,1.888
3087,1.83
3088,1.816
3089,1.823
3090,1.852
3091,1.855
3092,1.848
3093,1.841
3094,1.834
3095,1.819
3096,1.805
3097,1.779
3098,1.761
3099,1.772
3100,1.794
3101,1.83
3102,1.859
3103,1.877
3104,1.881
3105,1.877
3106,1.852
3107,1.823
3108,1.805
3109,1.808
3110,1.816
3111,1.826
3112,1.859
3113,1.884
3114,1.888
3115,1.888
3116,1.895
3117,1.902
3118,1.928
3119,1.921
3120,1.881
3121,1.808
3122,1.718
3123,1.685
3124,1.693
3125,1.722
3126,1.758
3127,1.776
3128,1.776
3129,1.747
3130,1.725
3131,1.74
3132,1.776
3133,1.794
3134,1.845
3135,1.877
3136,1.888
3137,1.874
3138,1.848
3139,1.83
3140,1.834
3141,1.859
3142,1.888
3143,1.899
3144,1.917
3145,1.939
3146,1.957
3147,1.96
3148,1.942
3149,1.888
3150,1.83
3151,1.794
3152,1.772
3153,1.779
3154,1.798
3155,1.834
3156,1.848
3157,1.848
3158,1.863
3159,2.0
3160,1.732
3161,1.414
3162,1.382
3163,1.714
3164,1.978
3165,2.058
3166,1.989
3167,1.848
3168,1.714
3169,1.609
3170,1.581
3171,1.443
3172,1.378
3173,1.436
3174,1.487
3175,1.541
3176,1.581
3177,2.253
3178,2.76
3179,2.76
3180,2.763
3181,2.488
3182,1.555
3183,0.9802
3184,1.186
3185,1.823
3186,2.326
3187,2.423
3188,2.391
3189,2.351
3190,2.242
3191,1.989
3192,1.685
3193,1.461
3194,1.356
3195,1.302
3196,1.147
3197,1.118
3198,1.222
3199,1.313
3200,1.378
3201,1.436
3202,1.49
3203,1.534
3204,1.57
3205,1.602
3206,1.736
3207,2.087
3208,2.315
3209,2.449
3210,2.525
3211,2.55
3212,2.561
3213,2.539
3214,2.478
3215,2.394
3216,2.322
3217,2.228
3218,2.098
3219,1.942
3220,1.783
3221,1.624
3222,1.494
3223,1.392
3224,1.32
3225,1.317
3226,1.345
3227,1.389
3228,1.425
3229,1.468
3230,1.505
3231,1.537
3232,1.577
3233,1.649
3234,1.718
3235,1.754
3236,1.772
3237,1.779
3238,1.79
3239,1.79
3240,1.776
3241,1.758
3242,1.779
3243,1.819
3244,1.859
3245,1.906
3246,1.949
3247,1.993
3248,2.007
3249,1.989
3250,1.982
3251,1.982
3252,1.982
3253,1.964
3254,1.924
3255,1.913
3256,1.924
3257,1.946
3258,1.953
3259,1.939
3260,1.899
3261,1.837
3262,1.79
3263,1.776
3264,1.772
3265,1.765
3266,1.761
3267,1.761
3268,1.765
3269,1.765
3270,1.743
3271,1.714
3272,1.678
3273,1.649
3274,1.776
3275,1.779
3276,1.635
3277,1.468
3278,1.501
3279,1.975
3280,2.365
3281,2.315
3282,2.112
3283,2.062
3284,2.062
3285,1.935
3286,1.765
3287,1.7
3288,1.675
3289,1.693
3290,1.675
3291,1.617
3292,1.653
3293,1.7
3294,1.7
3295,1.754
3296,1.801
3297,1.794
3298,1.776
3299,1.751
3300,1.758
3301,1.743
3302,1.787
3303,1.877
3304,1.921
3305,1.96
3306,2.004
3307,2.047
3308,2.043
3309,2.025
3310,1.986
3311,1.935
3312,1.899
3313,1.863
3314,1.83
3315,1.826
3316,1.841
3317,1.841
3318,1.819
3319,1.776
3320,1.74
3321,1.736
3322,1.751
3323,1.758
3324,1.765
3325,1.772
3326,1.79
3327,1.805
3328,1.812
3329,1.812
3330,1.79
3331,1.794
3332,1.79
3333,1.787
3334,1.808
3335,1.834
3336,1.848
3337,1.83
3338,1.805
3339,1.819
3340,1.826
3341,1.826
3342,1.812
3343,1.787
3344,1.772
3345,1.776
3346,1.79
3347,1.812
3348,1.855
3349,1.895
3350,1.91
3351,1.892
3352,1.848
3353,1.826
3354,1.845
3355,1.848
3356,1.834
3357,1.808
3358,1.776
3359,1.765
3360,1.776
3361,1.798
3362,1.801
3363,1.826
3364,1.845
3365,1.859
3366,1.863
3367,1.877
3368,1.892
3369,1.917
3370,1.917
3371,1.895
3372,1.888
3373,1.859
3374,1.837
3375,1.798
3376,1.751
3377,1.732
3378,1.732
3379,1.754
3380,1.79
3381,1.812
3382,1.848
3383,1.874
3384,1.866
3385,1.855
3386,1.805
3387,1.776
3388,1.798
3389,1.841
3390,1.855
3391,1.852
3392,1.83
3393,1.79
3394,1.776
3395,1.79
3396,1.801
3397,1.79
3398,1.823
3399,1.855
3400,1.892
3401,1.892
3402,1.87
3403,1.866
3404,1.859
3405,1.855
3406,1.848
3407,1.819
3408,1.812
3409,1.783
3410,1.751
3411,1.732
3412,1.729
3413,1.736
3414,1.758
3415,1.808
3416,1.852
3417,1.888
3418,1.902
3419,1.917
3420,1.942
3421,1.939
3422,1.928
3423,1.917
3424,1.881
3425,1.848
3426,1.837
3427,1.787
3428,1.772
3429,1.747
3430,1.707
3431,1.649
3432,1.396
3433,1.331
3434,1.4
3435,1.555
3436,1.946
3437,2.279
3438,2.463
3439,2.391
3440,2.17
3441,1.913
3442,1.7
3443,1.682
3444,1.819
3445,1.751
3446,1.429
3447,1.356
3448,1.855
3449,2.55
3450,2.763
3451,2.64
3452,2.145
3453,1.855
3454,1.83
3455,1.747
3456,1.439
3457,1.143
3458,1.114
3459,1.212
3460,1.298
3461,1.371
3462,1.432
3463,1.487
3464,1.537
3465,1.769
3466,1.928
3467,1.971
3468,1.996
3469,2.029
3470,2.083
3471,2.119
3472,2.145
3473,2.199
3474,2.257
3475,2.293
3476,2.318
3477,2.315
3478,2.246
3479,2.098
3480,1.957
3481,1.837
3482,1.711
3483,1.599
3484,1.53
3485,1.497
3486,1.494
3487,1.505
3488,1.537
3489,1.566
3490,1.599
3491,1.642
3492,1.689
3493,1.722
3494,1.74
3495,1.751
3496,1.747
3497,1.736
3498,1.765
3499,1.83
3500,1.899
3501,1.939
3502,1.924
3503,1.892
3504,1.888
3505,1.877
3506,1.863
3507,1.848
3508,1.837
3509,1.841
3510,1.852
3511,1.848
3512,1.855
3513,1.863
3514,1.892
3515,1.921
3516,1.928
3517,1.899
3518,1.863
3519,1.83
3520,1.823
3521,1.845
3522,1.859
3523,1.87
3524,1.848
3525,1.812
3526,1.779
3527,1.761
3528,1.747
3529,1.736
3530,1.732
3531,1.754
3532,1.776
3533,1.787
3534,1.761
3535,1.729
3536,1.7
3537,1.66
3538,1.562
3539,1.635
3540,1.975
3541,2.199
3542,2.134
3543,2.065
3544,2.152
3545,2.232
3546,2.185
3547,2.062
3548,1.881
3549,1.7
3550,1.624
3551,1.584
3552,1.552
3553,1.566
3554,1.646
3555,1.729
3556,1.761
3557,1.751
3558,1.736
3559,1.736
3560,1.769
3561,1.826
3562,1.874
3563,1.888
3564,1.884
3565,1.874
3566,1.888
3567,1.895
3568,1.913
3569,1.928
3570,1.924
3571,1.906
3572,1.888
3573,1.881
3574,1.881
3575,1.866
3576,1.83
3577,1.794
3578,1.761
3579,1.736
3580,1.729
3581,1.725
3582,1.725
3583,1.74
3584,1.761
3585,1.772
3586,1.805
3587,1.834
3588,1.848
3589,1.874
3590,1.884
3591,1.899
3592,1.902
3593,1.895
3594,1.877
3595,1.855
3596,1.826
3597,1.819
3598,1.812
3599,1.826
3600,1.826
3601,1.834
3602,1.812
3603,1.798
3604,1.787
3605,1.779
3606,1.769
3607,1.779
3608,1.783
3609,1.783
3610,1.801
3611,1.812
3612,1.812
3613,1.812
3614,1.819
3615,1.834
3616,1.845
3617,1.87
3618,1.888
3619,1.881
3620,1.848
3621,1.816
3622,1.805
3623,1.798
3624,1.783
3625,1.787
3626,1.834
3627,1.874
3628,1.906
3629,1.921
3630,1.935
3631,1.942
3632,1.924
3633,1.859
3634,1.798
3635,1.754
3636,1.732
3637,1.751
3638,1.754
3639,1.776
3640,1.787
3641,1.776
3642,1.779
3643,1.801
3644,1.823
3645,1.852
3646,1.87
3647,1.852
3648,1.819
3649,1.808
3650,1.852
3651,1.899
3652,1.91
3653,1.888
3654,1.834
3655,1.779
3656,1.758
3657,1.736
3658,1.722
3659,1.736
3660,1.761
3661,1.801
3662,1.826
3663,1.841
3664,1.884
3665,1.924
3666,1.946
3667,1.928
3668,1.866
3669,1.805
3670,1.794
3671,1.859
3672,1.928
3673,1.96
3674,1.96
3675,1.921
3676,1.895
3677,1.863
3678,1.83
3679,1.808
3680,1.751
3681,1.693
3682,1.675
3683,1.657
3684,1.646
3685,1.653
3686,1.657
3687,1.711
3688,1.779
3689,1.837
3690,1.906
3691,1.957
3692,1.924
3693,1.602
3694,1.335
3695,1.407
3696,1.675
3697,2.138
3698,2.416
3699,2.394
3700,2.156
3701,2.138
3702,2.232
3703,2.04
3704,1.584
3705,1.284
3706,1.414
3707,1.87
3708,2.38
3709,2.546
3710,2.376
3711,2.156
3712,2.004
3713,1.801
3714,1.49
3715,1.194
3716,1.078
3717,1.19
3718,1.284
3719,1.349
3720,1.414
3721,1.472
3722,1.537
3723,1.714
3724,1.826
3725,1.913
3726,1.996
3727,2.047
3728,2.083
3729,2.072
3730,2.083
3731,2.105
3732,2.112
3733,2.123
3734,2.166
3735,2.188
3736,2.188
3737,2.177
3738,2.119
3739,2.043
3740,1.939
3741,1.816
3742,1.736
3743,1.685
3744,1.657
3745,1.653
3746,1.646
3747,1.646
3748,1.649
3749,1.671
3750,1.704
3751,1.711
3752,1.704
3753,1.66
3754,1.653
3755,1.646
3756,1.653
3757,1.667
3758,1.682
3759,1.693
3760,1.714
3761,1.769
3762,1.823
3763,1.895
3764,1.96
3765,1.975
3766,1.96
3767,1.946
3768,1.931
3769,1.931
3770,1.939
3771,1.946
3772,1.964
3773,1.946
3774,1.913
3775,1.881
3776,1.845
3777,1.812
3778,1.787
3779,1.769
3780,1.758
3781,1.754
3782,1.769
3783,1.783
3784,1.798
3785,1.819
3786,1.852
3787,1.895
3788,1.902
3789,1.863
3790,1.798
3791,1.74
3792,1.714
3793,1.729
3794,1.754
3795,1.758
3796,1.725
3797,1.696
3798,1.671
3799,1.664
3800,1.613
3801,1.595
3802,1.808
3803,2.091
3804,2.105
3805,1.982
3806,1.986
3807,2.069
3808,2.105
3809,2.043
3810,1.881
3811,1.696
3812,1.664
3813,1.718
3814,1.761
3815,1.783
3816,1.805
3817,1.837
3818,1.863
3819,1.881
3820,1.895
3821,1.888
3822,1.888
3823,1.888
3824,1.877
3825,1.859
3826,1.841
3827,1.816
3828,1.794
3829,1.787
3830,1.779
3831,1.779
3832,1.779
3833,1.794
3834,1.808
3835,1.819
3836,1.837
3837,1.845
3838,1.834
3839,1.845
3840,1.855
3841,1.855
3842,1.841
3843,1.83
3844,1.819
3845,1.812
3846,1.801
3847,1.801
3848,1.779
3849,1.761
3850,1.754
3851,1.747
3852,1.729
3853,1.718
3854,1.725
3855,1.736
3856,1.761
3857,1.787
3858,1.823
3859,1.848
3860,1.884
3861,1.924
3862,1.957
3863,1.957
3864,1.942
3865,1.924
3866,1.906
3867,1.899
3868,1.888
3869,1.884
3870,1.87
3871,1.852
3872,1.834
3873,1.816
3874,1.79
3875,1.772
3876,1.765
3877,1.772
3878,1.801
3879,1.841
3880,1.859
3881,1.834
3882,1.808
3883,1.801
3884,1.808
3885,1.808
3886,1.794
3887,1.783
3888,1.783
3889,1.751
3890,1.722
3891,1.736
3892,1.761
3893,1.808
3894,1.845
3895,1.874
3896,1.899
3897,1.902
3898,1.884
3899,1.855
3900,1.826
3901,1.819
3902,1.812
3903,1.805
3904,1.823
3905,1.866
3906,1.906
3907,1.935
3908,1.931
3909,1.881
3910,1.812
3911,1.772
3912,1.79
3913,1.841
3914,1.866
3915,1.859
3916,1.823
3917,1.769
3918,1.74
3919,1.725
3920,1.729
3921,1.736
3922,1.729
3923,1.751
3924,1.794
3925,1.845
3926,1.852
3927,1.874
3928,1.892
3929,1.924
3930,1.96
3931,1.986
3932,2.0
3933,1.986
3934,1.939
3935,1.902
3936,1.834
3937,1.776
3938,1.74
3939,1.704
3940,1.696
3941,1.671
3942,1.696
3943,1.725
3944,1.751
3945,1.776
3946,1.826
3947,1.859
3948,1.855
3949,1.816
3950,1.758
3951,1.754
3952,1.671
3953,1.4
3954,1.396
3955,1.454
3956,1.617
3957,1.996
3958,2.42
3959,2.488
3960,2.333
3961,2.398
3962,2.43
3963,2.163
3964,1.718
3965,1.32
3966,1.183
3967,1.584
3968,2.376
3969,2.763
3970,2.713
3971,2.271
3972,1.946
3973,1.834
3974,1.704
3975,1.374
3976,1.024
3977,1.042
3978,1.154
3979,1.244
3980,1.324
3981,1.396
3982,1.454
3983,1.501
3984,1.544
3985,1.581
3986,1.696
3987,1.877
3988,2.018
3989,2.148
3990,2.221
3991,2.264
3992,2.3
3993,2.322
3994,2.351
3995,2.383
3996,2.412
3997,2.402
3998,2.315
3999,2.17
4000,1.989
4001,1.837
4002,1.725
4003,1.631
4004,1.53
4005,1.458
4006,1.407
4007,1.403
4008,1.414
4009,1.479
4010,1.548
4011,1.595
4012,1.617
4013,1.642
4014,1.664
4015,1.675
4016,1.685
4017,1.696
4018,1.711
4019,1.729
4020,1.751
4021,1.801
4022,1.866
4023,1.957
4024,2.04
4025,2.065
4026,2.054
4027,2.051
4028,2.04
4029,2.025
4030,2.025
4031,2.018
4032,1.975
4033,1.899
4034,1.837
4035,1.794
4036,1.765
4037,1.74
4038,1.722
4039,1.74
4040,1.769
4041,1.794
4042,1.79
4043,1.783
4044,1.779
4045,1.79
4046,1.801
4047,1.794
4048,1.787
4049,1.779
4050,1.769
4051,1.79
4052,1.816
4053,1.845
4054,1.87
4055,1.874
4056,1.819
4057,1.736
4058,1.664
4059,1.631
4060,1.581
4061,1.541
4062,1.761
4063,2.015
4064,1.964
4065,1.917
4066,2.072
4067,2.228
4068,2.21
4069,2.036
4070,1.845
4071,1.732
4072,1.707
4073,1.704
4074,1.7
4075,1.7
4076,1.707
4077,1.718
4078,1.743
4079,1.794
4080,1.852
4081,1.888
4082,1.892
4083,1.888
4084,1.877
4085,1.877
4086,1.877
4087,1.892
4088,1.906
4089,1.884
4090,1.877
4091,1.902
4092,1.917
4093,1.91
4094,1.888
4095,1.845
4096,1.823
4097,1.798
4098,1.798
4099,1.787
4100,1.754
4101,1.74
4102,1.718
4103,1.722
4104,1.718
4105,1.696
4106,1.678
4107,1.685
4108,1.7
4109,1.736
4110,1.765
4111,1.769
4112,1.794
4113,1.83
4114,1.841
4115,1.87
4116,1.895
4117,1.913
4118,1.928
4119,1.924
4120,1.928
4121,1.924
4122,1.931
4123,1.931
4124,1.931
4125,1.91
4126,1.899
4127,1.917
4128,1.921
4129,1.888
4130,1.837
4131,1.805
4132,1.79
4133,1.754
4134,1.722
4135,1.711
4136,1.707
4137,1.725
4138,1.761
4139,1.801
4140,1.823
4141,1.852
4142,1.855
4143,1.834
4144,1.801
4145,1.769
4146,1.754
4147,1.769
4148,1.794
4149,1.798
4150,1.79
4151,1.769
4152,1.765
4153,1.787
4154,1.819
4155,1.83
4156,1.841
4157,1.855
4158,1.874
4159,1.881
4160,1.866
4161,1.87
4162,1.881
4163,1.888
4164,1.884
4165,1.87
4166,1.866
4167,1.874
4168,1.895
4169,1.906
4170,1.892
4171,1.877
4172,1.866
4173,1.848
4174,1.837
4175,1.816
4176,1.805
4177,1.808
4178,1.794
4179,1.772
4180,1.769
4181,1.776
4182,1.783
4183,1.805
4184,1.808
4185,1.801
4186,1.798
4187,1.812
4188,1.83
4189,1.837
4190,1.845
4191,1.841
4192,1.834
4193,1.823
4194,1.837
4195,1.87
4196,1.931
4197,1.953
4198,1.913
4199,1.834
4200,1.765
4201,1.751
4202,1.751
4203,1.736
4204,1.747
4205,1.754
4206,1.79
4207,1.823
4208,1.834
4209,1.779
4210,1.736
4211,1.707
4212,1.609
4213,1.342
4214,1.4
4215,1.472
4216,1.508
4217,1.555
4218,2.166
4219,2.763
4220,2.76
4221,2.763
4222,2.539
4223,2.123
4224,1.555
4225,0.9693
4226,1.081
4227,1.19
4228,2.275
4229,2.763
4230,2.767
4231,2.409
4232,1.859
4233,1.609
4234,1.595
4235,1.548
4236,1.396
4237,1.266
4238,1.157
4239,1.172
4240,1.266
4241,1.342
4242,1.411
4243,1.465
4244,1.515
4245,1.555
4246,1.588
4247,1.769
4248,1.946
4249,2.043
4250,2.159
4251,2.282
4252,2.398
4253,2.474
4254,2.521
4255,2.546
4256,2.528
4257,2.467
4258,2.365
4259,2.213
4260,2.072
4261,1.949
4262,1.855
4263,1.751
4264,1.631
4265,1.515
4266,1.411
4267,1.335
4268,1.302
4269,1.306
4270,1.327
4271,1.389
4272,1.454
4273,1.512
4274,1.548
4275,1.581
4276,1.599
4277,1.62
4278,1.649
4279,1.711
4280,1.779
4281,1.826
4282,1.855
4283,1.888
4284,1.939
4285,1.978
4286,1.982
4287,1.964
4288,1.957
4289,1.949
4290,1.949
4291,1.96
4292,1.957
4293,1.957
4294,1.942
4295,1.921
4296,1.899
4297,1.874
4298,1.859
4299,1.859
4300,1.881
4301,1.888
4302,1.881
4303,1.863
4304,1.841
4305,1.826
4306,1.819
4307,1.816
4308,1.819
4309,1.823
4310,1.848
4311,1.87
4312,1.884
4313,1.866
4314,1.837
4315,1.798
4316,1.754
4317,1.704
4318,1.657
4319,1.581
4320,1.505
4321,1.472
4322,1.606
4323,1.964
4324,2.054
4325,1.986
4326,2.018
4327,2.152
4328,2.21
4329,2.138
4330,1.975
4331,1.826
4332,1.779
4333,1.769
4334,1.725
4335,1.66
4336,1.613
4337,1.588
4338,1.599
4339,1.631
4340,1.678
4341,1.729
4342,1.776
4343,1.808
4344,1.841
4345,1.877
4346,1.906
4347,1.935
4348,1.935
4349,1.921
4350,1.902
4351,1.888
4352,1.881
4353,1.902
4354,1.931
4355,1.953
4356,1.957
4357,1.949
4358,1.931
4359,1.91
4360,1.881
4361,1.819
4362,1.765
4363,1.725
4364,1.714
4365,1.707
4366,1.707
4367,1.711
4368,1.714
4369,1.729
4370,1.736
4371,1.732
4372,1.747
4373,1.779
4374,1.83
4375,1.852
4376,1.855
4377,1.866
4378,1.855
4379,1.845
4380,1.826
4381,1.819
4382,1.816
4383,1.819
4384,1.837
4385,1.87
4386,1.902
4387,1.906
4388,1.881
4389,1.841
4390,1.826
4391,1.816
4392,1.805
4393,1.808
4394,1.826
4395,1.848
4396,1.852
4397,1.841
4398,1.823
4399,1.823
4400,1.826
4401,1.855
4402,1.874
4403,1.866
4404,1.852
4405,1.845
4406,1.848
4407,1.845
4408,1.816
4409,1.794
4410,1.787
4411,1.769
4412,1.769
4413,1.776
4414,1.79
4415,1.808
4416,1.841
4417,1.874
4418,1.881
4419,1.859
4420,1.816
4421,1.772
4422,1.747
4423,1.743
4424,1.761
4425,1.794
4426,1.823
4427,1.841
4428,1.845
4429,1.841
4430,1.863
4431,1.899
4432,1.917
4433,1.921
4434,1.906
4435,1.866
4436,1.834
4437,1.808
4438,1.772
4439,1.747
4440,1.732
4441,1.74
4442,1.751
4443,1.769
4444,1.812
4445,1.859
4446,1.902
4447,1.924
4448,1.928
4449,1.928
4450,1.917
4451,1.913
4452,1.91
4453,1.91
4454,1.881
4455,1.841
4456,1.808
4457,1.783
4458,1.772
4459,1.783
4460,1.787
4461,1.794
4462,1.801
4463,1.819
4464,1.848
4465,1.845
4466,1.794
4467,1.722
4468,1.696
4469,1.74
4470,1.798
4471,1.845
4472,1.884
4473,1.931
4474,1.888
4475,1.624
4476,1.273
4477,1.349
4478,1.421
4479,1.476
4480,1.74
4481,2.423
4482,2.763
4483,2.767
4484,2.43
4485,1.993
4486,1.675
4487,1.707
4488,1.798
4489,1.519
4490,1.143
4491,1.241
4492,1.758
4493,2.235
4494,2.438
4495,2.441
4496,2.293
4497,2.119
4498,1.917
4499,1.624
4500,1.403
4501,1.266
4502,1.208
4503,1.237
4504,1.317
4505,1.389
4506,1.45
4507,1.494
4508,1.541
4509,1.685
4510,1.942
4511,2.076
4512,2.13
4513,2.13
4514,2.13
4515,2.141
4516,2.152
4517,2.185
4518,2.242
4519,2.264
4520,2.242
4521,2.199
4522,2.17
4523,2.152
4524,2.109
4525,2.043
4526,1.957
4527,1.863
4528,1.751
4529,1.628
4530,1.508
4531,1.432
4532,1.378
4533,1.367
4534,1.389
4535,1.429
4536,1.479
4537,1.53
4538,1.566
4539,1.595
4540,1.631
4541,1.657
4542,1.696
4543,1.732
4544,1.765
4545,1.798
4546,1.834
4547,1.863
4548,1.921
4549,1.989
4550,2.036
4551,2.04
4552,2.025
4553,2.007
4554,2.0
4555,2.011
4556,2.004
4557,1.989
4558,1.975
4559,1.971
4560,1.964
4561,1.939
4562,1.888
4563,1.83
4564,1.776
4565,1.751
4566,1.729
4567,1.718
4568,1.718
4569,1.74
4570,1.765
4571,1.79
4572,1.83
4573,1.845
4574,1.837
4575,1.805
4576,1.765
4577,1.722
4578,1.667
4579,1.624
4580,1.649
4581,1.66
4582,1.617
4583,1.609
4584,1.917
4585,2.195
4586,2.17
4587,2.083
4588,2.166
4589,2.264
4590,2.181
4591,1.946
4592,1.711
4593,1.613
4594,1.642
4595,1.675
4596,1.685
4597,1.707
4598,1.725
4599,1.711
4600,1.667
4601,1.638
4602,1.657
4603,1.704
4604,1.765
4605,1.801
4606,1.83
4607,1.855
4608,1.877
4609,1.913
4610,1.935
4611,1.942
4612,1.924
4613,1.91
4614,1.902
4615,1.928
4616,1.935
4617,1.946
4618,1.928
4619,1.899
4620,1.884
4621,1.87
4622,1.855
4623,1.848
4624,1.841
4625,1.826
4626,1.79
4627,1.732
4628,1.718
4629,1.722
4630,1.725
4631,1.74
4632,1.751
4633,1.754
4634,1.754
4635,1.761
4636,1.758
4637,1.772
4638,1.783
4639,1.801
4640,1.812
4641,1.816
4642,1.823
4643,1.83
4644,1.841
4645,1.841
4646,1.837
4647,1.834
4648,1.837
4649,1.834
4650,1.841
4651,1.859
4652,1.87
4653,1.877
4654,1.895
4655,1.913
4656,1.924
4657,1.931
4658,1.931
4659,1.91
4660,1.888
4661,1.874
4662,1.863
4663,1.859
4664,1.848
4665,1.845
4666,1.826
4667,1.845
4668,1.83
4669,1.798
4670,1.779
4671,1.779
4672,1.765
4673,1.743
4674,1.74
4675,1.751
4676,1.729
4677,1.7
4678,1.671
4679,1.678
4680,1.718
4681,1.732
4682,1.754
4683,1.776
4684,1.808
4685,1.823
4686,1.823
4687,1.834
4688,1.874
4689,1.917
4690,1.957
4691,1.975
4692,1.975
4693,2.007
4694,2.022
4695,1.957
4696,1.852
4697,1.801
4698,1.823
4699,1.852
4700,1.859
4701,1.866
4702,1.834
4703,1.736
4704,1.667
4705,1.667
4706,1.696
4707,1.707
4708,1.704
4709,1.714
4710,1.751
4711,1.779
4712,1.826
4713,1.87
4714,1.902
4715,1.895
4716,1.892
4717,1.902
4718,1.928
4719,1.96
4720,1.978
4721,2.0
4722,2.015
4723,1.996
4724,1.921
4725,1.881
4726,1.884
4727,1.91
4728,1.884
4729,1.812
4730,1.732
4731,1.646
4732,1.588
4733,1.562
4734,1.581
4735,1.667
4736,1.758
4737,1.772
4738,1.761
4739,1.758
4740,1.707
4741,1.443
4742,1.396
4743,1.458
4744,1.729
4745,2.188
4746,2.445
4747,2.434
4748,2.264
4749,2.174
4750,2.123
4751,1.996
4752,1.794
4753,1.591
4754,1.559
4755,1.642
4756,1.924
4757,2.271
4758,2.492
4759,2.427
4760,2.217
4761,1.953
4762,1.624
4763,1.288
4764,1.027
4765,1.121
4766,1.226
4767,1.313
4768,1.378
4769,1.436
4770,1.487
4771,1.537
4772,1.678
4773,1.826
4774,1.924
4775,2.004
4776,2.076
4777,2.109
4778,2.105
4779,2.112
4780,2.116
4781,2.141
4782,2.185
4783,2.239
4784,2.282
4785,2.293
4786,2.257
4787,2.166
4788,2.065
4789,1.975
4790,1.855
4791,1.754
4792,1.682
4793,1.609
4794,1.548
4795,1.523
4796,1.544
4797,1.555
4798,1.562
4799,1.555
4800,1.544
4801,1.552
4802,1.57
4803,1.577
4804,1.581
4805,1.599
4806,1.667
4807,1.769
4808,1.852
4809,1.921
4810,1.953
4811,1.935
4812,1.913
4813,1.899
4814,1.877
4815,1.859
4816,1.888
4817,1.946
4818,1.996
4819,2.004
4820,1.978
4821,1.942
4822,1.899
4823,1.881
4824,1.866
4825,1.841
4826,1.823
4827,1.83
4828,1.866
4829,1.888
4830,1.881
4831,1.852
4832,1.801
4833,1.779
4834,1.801
4835,1.801
4836,1.79
4837,1.79
4838,1.779
4839,1.772
4840,1.754
4841,1.736
4842,1.758
4843,1.729
4844,1.635
4845,1.515
4846,1.57
4847,1.863
4848,2.112
4849,2.094
4850,2.011
4851,2.029
4852,2.025
4853,1.993
4854,1.881
4855,1.805
4856,1.783
4857,1.928
4858,2.0
4859,1.939
4860,1.866
4861,1.783
4862,1.707
4863,1.671
4864,1.671
4865,1.642
4866,1.646
4867,1.689
4868,1.74
4869,1.758
4870,1.758
4871,1.787
4872,1.808
4873,1.83
4874,1.855
4875,1.881
4876,1.877
4877,1.87
4878,1.866
4879,1.87
4880,1.874
4881,1.888
4882,1.895
4883,1.91
4884,1.921
4885,1.946
4886,1.953
4887,1.921
4888,1.87
4889,1.819
4890,1.779
4891,1.747
4892,1.732
4893,1.725
4894,1.729
4895,1.725
4896,1.74
4897,1.761
4898,1.765
4899,1.754
4900,1.783
4901,1.805
4902,1.837
4903,1.87
4904,1.895
4905,1.906
4906,1.931
4907,1.924
4908,1.877
4909,1.859
4910,1.826
4911,1.79
4912,1.801
4913,1.794
4914,1.808
4915,1.812
4916,1.816
4917,1.834
4918,1.848
4919,1.816
4920,1.765
4921,1.736
4922,1.74
4923,1.765
4924,1.779
4925,1.812
4926,1.845
4927,1.87
4928,1.855
4929,1.892
4930,1.87
4931,1.83
4932,1.819
4933,1.808
4934,1.819
4935,1.812
4936,1.79
4937,1.816
4938,1.837
4939,1.87
4940,1.881
4941,1.855
4942,2.011
4943,2.029
4944,2.007
4945,1.902
4946,1.816
4947,1.794
4948,1.819
4949,1.783
4950,1.808
4951,1.816
4952,1.769
4953,1.714
4954,1.729
4955,1.725
4956,1.751
4957,1.743
4958,1.704
4959,1.732
4960,1.787
4961,1.83
4962,1.852
4963,1.841
4964,1.823
4965,1.816
4966,1.834
4967,1.83
4968,1.816
4969,1.801
4970,1.79
4971,1.855
4972,1.964
4973,1.946
4974,1.895
4975,1.801
4976,1.725
4977,1.704
4978,1.787
4979,1.845
4980,1.877
4981,1.964
4982,2.033
4983,2.015
4984,1.964
4985,1.852
4986,1.722
4987,1.693
4988,1.74
4989,1.779
4990,1.841
4991,1.859
4992,1.892
4993,1.949
4994,1.931
4995,1.859
4996,1.783
4997,1.714
4998,1.675
4999,1.653
5000,1.628
5001,1.653
5002,1.711
5003,1.751
5004,1.783
5005,1.808
5006,1.841
5007,1.776
5008,1.483
5009,1.49
5010,1.935
5011,2.333
5012,2.441
5013,2.308
5014,1.996
5015,1.881
5016,2.141
5017,2.344
5018,2.015
5019,1.342
5020,1.11
5021,1.219
5022,2.109
5023,2.767
5024,2.767
5025,2.412
5026,1.978
5027,1.642
5028,1.432
5029,1.201
5030,1.042
5031,1.154
5032,1.248
5033,1.331
5034,1.396
5035,1.454
5036,1.505
5037,1.552
5038,1.729
5039,1.921
5040,2.058
5041,2.087
5042,2.047
5043,2.018
5044,2.007
5045,2.087
5046,2.185
5047,2.275
5048,2.336
5049,2.351
5050,2.333
5051,2.264
5052,2.163
5053,2.054
5054,1.971
5055,1.895
5056,1.769
5057,1.649
5058,1.552
5059,1.505
5060,1.483
5061,1.454
5062,1.454
5063,1.508
5064,1.501
5065,1.617
5066,1.685
5067,1.736
5068,1.765
5069,1.732
5070,1.736
5071,1.747
5072,1.743
5073,1.776
5074,1.758
5075,1.725
5076,1.761
5077,1.823
5078,1.888
5079,1.953
5080,1.971
5081,1.91
5082,1.899
5083,1.913
5084,1.931
5085,1.931
5086,1.906
5087,1.953
5088,1.968
5089,1.964
5090,1.939
5091,1.859
5092,1.812
5093,1.798
5094,1.79
5095,1.79
5096,1.826
5097,1.834
5098,1.834
5099,1.87
5100,1.863
5101,1.852
5102,1.805
5103,1.754
5104,1.74
5105,1.718
5106,1.675
5107,1.649
5108,1.682
5109,1.754
5110,1.761
5111,1.736
5112,1.722
5113,1.613
5114,1.591
5115,1.906
5116,2.275
5117,2.192
5118,2.011
5119,2.011
5120,2.101
5121,2.065
5122,1.946
5123,1.801
5124,1.758
5125,1.808
5126,1.83
5127,1.83
5128,1.798
5129,1.736
5130,1.722
5131,1.725
5132,1.711
5133,1.675
5134,1.642
5135,1.682
5136,1.74
5137,1.769
5138,1.79
5139,1.852
5140,1.794
5141,1.747
5142,1.761
5143,1.841
5144,1.921
5145,1.982
5146,1.964
5147,1.931
5148,1.902
5149,1.902
5150,1.971
5151,1.993
5152,1.96
5153,1.899
5154,1.837
5155,1.79
5156,1.787
5157,1.852
5158,1.874
5159,1.83
5160,1.808
5161,1.812
5162,1.801
5163,1.758
5164,1.74
5165,1.725
5166,1.725
5167,1.729
5168,1.751
5169,1.798
5170,1.834
5171,1.834
5172,1.805
5173,1.79
5174,1.801
5175,1.808
5176,1.79
5177,1.79
5178,1.805
5179,1.845
5180,1.859
5181,1.841
5182,1.823
5183,1.79
5184,1.798
5185,1.772
5186,1.772
5187,1.772
5188,1.772
5189,1.736
5190,1.747
5191,1.845
5192,1.971
5193,2.051
5194,2.036
5195,1.975
5196,1.895
5197,1.805
5198,1.765
5199,1.761
5200,1.787
5201,1.808
5202,1.823
5203,1.798
5204,1.794
5205,1.816
5206,1.845
5207,1.881
5208,1.888
5209,1.881
5210,1.866
5211,1.83
5212,1.823
5213,1.83
5214,1.845
5215,1.859
5216,1.87
5217,1.855
5218,1.852
5219,1.852
5220,1.816
5221,1.798
5222,1.783
5223,1.776
5224,1.751
5225,1.754
5226,1.761
5227,1.776
5228,1.805
5229,1.794
5230,1.783
5231,1.769
5232,1.808
5233,1.859
5234,1.892
5235,1.87
5236,1.837
5237,1.855
5238,1.855
5239,1.823
5240,1.79
5241,1.779
5242,1.823
5243,1.863
5244,1.899
5245,1.906
5246,1.881
5247,1.866
5248,1.841
5249,1.805
5250,1.808
5251,1.808
5252,1.79
5253,1.805
5254,1.801
5255,1.845
5256,1.877
5257,1.91
5258,1.906
5259,1.913
5260,1.917
5261,1.895
5262,1.877
5263,1.823
5264,1.758
5265,1.729
5266,1.754
5267,1.783
5268,1.794
5269,1.736
5270,1.642
5271,1.631
5272,1.646
5273,1.613
5274,1.396
5275,1.418
5276,1.468
5277,1.519
5278,1.562
5279,1.928
5280,2.763
5281,2.76
5282,2.76
5283,2.767
5284,2.279
5285,1.512
5286,0.9729
5287,1.078
5288,1.27
5289,2.235
5290,2.698
5291,2.727
5292,2.535
5293,2.232
5294,1.913
5295,1.649
5296,1.487
5297,1.36
5298,1.23
5299,1.074
5300,1.114
5301,1.212
5302,1.298
5303,1.374
5304,1.436
5305,1.49
5306,1.534
5307,1.57
5308,1.599
5309,1.841
5310,2.025
5311,2.145
5312,2.282
5313,2.449
5314,2.59
5315,2.68
5316,2.702
5317,2.676
5318,2.608
5319,2.456
5320,2.275
5321,2.087
5322,1.899
5323,1.736
5324,1.591
5325,1.454
5326,1.374
5327,1.302
5328,1.237
5329,1.222
5330,1.215
5331,1.226
5332,1.27
5333,1.331
5334,1.392
5335,1.461
5336,1.519
5337,1.573
5338,1.646
5339,1.718
5340,1.826
5341,1.928
5342,2.036
5343,2.127
5344,2.163
5345,2.152
5346,2.13
5347,2.119
5348,2.083
5349,2.043
5350,2.015
5351,1.971
5352,1.96
5353,1.91
5354,1.852
5355,1.805
5356,1.79
5357,1.765
5358,1.747
5359,1.729
5360,1.729
5361,1.732
5362,1.718
5363,1.714
5364,1.732
5365,1.747
5366,1.761
5367,1.751
5368,1.761
5369,1.765
5370,1.801
5371,1.859
5372,1.921
5373,1.946
5374,1.949
5375,1.939
5376,1.895
5377,1.852
5378,1.823
5379,1.805
5380,1.794
5381,1.754
5382,1.675
5383,1.537
5384,1.425
5385,1.62
5386,2.025
5387,2.163
5388,2.051
5389,2.054
5390,2.159
5391,2.224
5392,2.17
5393,2.065
5394,1.96
5395,1.899
5396,1.845
5397,1.805
5398,1.722
5399,1.62
5400,1.541
5401,1.512
5402,1.512
5403,1.512
5404,1.548
5405,1.602
5406,1.671
5407,1.747
5408,1.798
5409,1.841
5410,1.877
5411,1.899
5412,1.917
5413,1.928
5414,1.953
5415,1.986
5416,1.996
5417,1.993
5418,1.957
5419,1.91
5420,1.852
5421,1.808
5422,1.779
5423,1.798
5424,1.816
5425,1.826
5426,1.837
5427,1.816
5428,1.772
5429,1.747
5430,1.729
5431,1.743
5432,1.758
5433,1.787
5434,1.798
5435,1.83
5436,1.845
5437,1.87
5438,1.881
5439,1.913
5440,1.939
5441,1.939
5442,1.917
5443,1.874
5444,1.837
5445,1.816
5446,1.798
5447,1.776
5448,1.747
5449,1.736
5450,1.743
5451,1.758
5452,1.787
5453,1.819
5454,1.841
5455,1.848
5456,1.848
5457,1.852
5458,1.863
5459,1.845
5460,1.812
5461,1.79
5462,1.776
5463,1.769
5464,1.765
5465,1.769
5466,1.779
5467,1.812
5468,1.848
5469,1.899
5470,1.921
5471,1.928
5472,1.921
5473,1.892
5474,1.859
5475,1.852
5476,1.852
5477,1.848
5478,1.841
5479,1.837
5480,1.823
5481,1.808
5482,1.794
5483,1.798
5484,1.79
5485,1.783
5486,1.754
5487,1.772
5488,1.805
5489,1.841
5490,1.859
5491,1.855
5492,1.816
5493,1.787
5494,1.776
5495,1.79
5496,1.805
5497,1.812
5498,1.805
5499,1.798
5500,1.805
5501,1.83
5502,1.841
5503,1.823
5504,1.805
5505,1.801
5506,1.823
5507,1.852
5508,1.866
5509,1.863
5510,1.852
5511,1.859
5512,1.87
5513,1.884
5514,1.866
5515,1.87
5516,1.877
5517,1.874
5518,1.87
5519,1.863
5520,1.845
5521,1.823
5522,1.798
5523,1.801
5524,1.783
5525,1.808
5526,1.826
5527,1.863
5528,1.87
5529,1.884
5530,1.863
5531,1.855
5532,1.819
5533,1.79
5534,1.751
5535,1.74
5536,1.779
5537,1.834
5538,1.852
5539,1.816
5540,1.772
5541,1.714
5542,1.606
5543,1.454
5544,1.353
5545,1.421
5546,1.472
5547,1.523
5548,1.758
5549,2.434
5550,2.763
5551,2.76
5552,2.658
5553,2.203
5554,1.978
5555,1.877
5556,1.288
5557,1.042
5558,1.161
5559,1.403
5560,2.351
5561,2.767
5562,2.6
5563,2.119
5564,1.801
5565,1.776
5566,1.834
5567,1.671
5568,1.4
5569,1.233
5570,1.161
5571,1.222
5572,1.306
5573,1.378
5574,1.436
5575,1.49
5576,1.537
5577,1.577
5578,1.826
5579,2.043
5580,2.138
5581,2.145
5582,2.185
5583,2.235
5584,2.282
5585,2.336
5586,2.373
5587,2.409
5588,2.441
5589,2.409
5590,2.318
5591,2.177
5592,2.015
5593,1.848
5594,1.7
5595,1.577
5596,1.494
5597,1.421
5598,1.353
5599,1.331
5600,1.313
5601,1.32
5602,1.356
5603,1.396
5604,1.432
5605,1.479
5606,1.562
5607,1.635
5608,1.685
5609,1.747
5610,1.808
5611,1.874
5612,1.96
5613,2.047
5614,2.083
5615,2.069
5616,2.076
5617,2.098
5618,2.112
5619,2.098
5620,2.051
5621,1.982
5622,1.939
5623,1.902
5624,1.881
5625,1.83
5626,1.769
5627,1.722
5628,1.696
5629,1.707
5630,1.74
5631,1.776
5632,1.787
5633,1.801
5634,1.801
5635,1.794
5636,1.772
5637,1.765
5638,1.769
5639,1.776
5640,1.779
5641,1.776
5642,1.805
5643,1.837
5644,1.884
5645,1.917
5646,1.91
5647,1.877
5648,1.845
5649,1.816
5650,1.805
5651,1.798
5652,1.743
5653,1.635
5654,1.468
5655,1.421
5656,1.845
5657,2.261
5658,2.188
5659,2.072
5660,2.203
5661,2.326
5662,2.253
5663,2.076
5664,1.87
5665,1.685
5666,1.631
5667,1.617
5668,1.577
5669,1.548
5670,1.534
5671,1.53
5672,1.552
5673,1.609
5674,1.689
5675,1.758
5676,1.812
5677,1.863
5678,1.884
5679,1.895
5680,1.906
5681,1.917
5682,1.931
5683,1.946
5684,1.949
5685,1.957
5686,1.964
5687,1.949
5688,1.935
5689,1.899
5690,1.859
5691,1.823
5692,1.801
5693,1.794
5694,1.79
5695,1.79
5696,1.794
5697,1.772
5698,1.754
5699,1.736
5700,1.722
5701,1.704
5702,1.7
5703,1.718
5704,1.743
5705,1.772
5706,1.798
5707,1.837
5708,1.852
5709,1.881
5710,1.91
5711,1.921
5712,1.902
5713,1.881
5714,1.877
5715,1.881
5716,1.888
5717,1.892
5718,1.906
5719,1.906
5720,1.906
5721,1.902
5722,1.884
5723,1.874
5724,1.863
5725,1.859
5726,1.837
5727,1.812
5728,1.783
5729,1.751
5730,1.707
5731,1.678
5732,1.682
5733,1.689
5734,1.714
5735,1.74
5736,1.758
5737,1.772
5738,1.787
5739,1.823
5740,1.845
5741,1.837
5742,1.834
5743,1.837
5744,1.848
5745,1.859
5746,1.855
5747,1.845
5748,1.845
5749,1.855
5750,1.881
5751,1.895
5752,1.913
5753,1.931
5754,1.931
5755,1.899
5756,1.863
5757,1.823
5758,1.779
5759,1.74
5760,1.718
5761,1.736
5762,1.765
5763,1.819
5764,1.845
5765,1.845
5766,1.837
5767,1.834
5768,1.837
5769,1.841
5770,1.841
5771,1.826
5772,1.812
5773,1.783
5774,1.772
5775,1.779
5776,1.794
5777,1.826
5778,1.852
5779,1.877
5780,1.884
5781,1.87
5782,1.855
5783,1.852
5784,1.834
5785,1.819
5786,1.816
5787,1.823
5788,1.841
5789,1.863
5790,1.87
5791,1.892
5792,1.935
5793,1.975
5794,1.982
5795,1.935
5796,1.888
5797,1.841
5798,1.787
5799,1.751
5800,1.74
5801,1.729
5802,1.732
5803,1.743
5804,1.747
5805,1.725
5806,1.711
5807,1.722
5808,1.772
5809,1.845
5810,1.877
5811,1.866
5812,1.837
5813,1.801
5814,1.66
5815,1.327
5816,1.371
5817,1.432
5818,1.487
5819,1.895
5820,2.416
5821,2.651
5822,2.546
5823,2.268
5824,1.968
5825,1.772
5826,1.732
5827,1.928
5828,1.866
5829,1.385
5830,1.291
5831,1.617
5832,2.109
5833,2.449
5834,2.492
5835,2.362
5836,2.206
5837,2.015
5838,1.704
5839,1.382
5840,1.165
5841,1.114
5842,1.215
5843,1.302
5844,1.371
5845,1.432
5846,1.487
5847,1.53
5848,1.776
5849,1.975
5850,2.043
5851,2.047
5852,2.025
5853,2.011
5854,2.022
5855,2.069
5856,2.134
5857,2.188
5858,2.242
5859,2.279
5860,2.261
5861,2.21
5862,2.148
5863,2.065
5864,2.0
5865,1.942
5866,1.888
5867,1.816
5868,1.725
5869,1.638
5870,1.53
5871,1.45
5872,1.403
5873,1.392
5874,1.425
5875,1.476
5876,1.523
5877,1.57
5878,1.613
5879,1.642
5880,1.671
5881,1.704
5882,1.736
5883,1.787
5884,1.837
5885,1.877
5886,1.906
5887,1.921
5888,1.935
5889,1.96
5890,1.993
5891,2.029
5892,2.029
5893,2.018
5894,2.025
5895,2.033
5896,2.007
5897,1.957
5898,1.881
5899,1.805
5900,1.761
5901,1.754
5902,1.769
5903,1.776
5904,1.79
5905,1.816
5906,1.845
5907,1.845
5908,1.816
5909,1.79
5910,1.772
5911,1.776
5912,1.787
5913,1.798
5914,1.808
5915,1.816
5916,1.819
5917,1.826
5918,1.826
5919,1.808
5920,1.79
5921,1.747
5922,1.678
5923,1.548
5924,1.653
5925,2.04
5926,2.138
5927,1.917
5928,1.866
5929,2.033
5930,2.145
5931,2.145
5932,2.036
5933,1.863
5934,1.751
5935,1.696
5936,1.649
5937,1.613
5938,1.591
5939,1.57
5940,1.573
5941,1.606
5942,1.664
5943,1.729
5944,1.79
5945,1.845
5946,1.863
5947,1.884
5948,1.906
5949,1.913
5950,1.91
5951,1.91
5952,1.913
5953,1.928
5954,1.939
5955,1.935
5956,1.928
5957,1.895
5958,1.881
5959,1.866
5960,1.848
5961,1.837
5962,1.845
5963,1.845
5964,1.83
5965,1.808
5966,1.798
5967,1.79
5968,1.787
5969,1.798
5970,1.812
5971,1.826
5972,1.816
5973,1.812
5974,1.808
5975,1.819
5976,1.834
5977,1.848
5978,1.841
5979,1.826
5980,1.816
5981,1.794
5982,1.772
5983,1.765
5984,1.751
5985,1.74
5986,1.751
5987,1.769
5988,1.801
5989,1.823
5990,1.841
5991,1.866
5992,1.888
5993,1.884
5994,1.855
5995,1.83
5996,1.816
5997,1.808
5998,1.787
5999,1.801
6000,1.801
6001,1.83
6002,1.859
6003,1.877
6004,1.87
6005,1.852
6006,1.837
6007,1.826
6008,1.823
6009,1.816
6010,1.801
6011,1.787
6012,1.812
6013,1.845
6014,1.884
6015,1.91
6016,1.91
6017,1.895
6018,1.877
6019,1.87
6020,1.859
6021,1.845
6022,1.834
6023,1.812
6024,1.765
6025,1.732
6026,1.7
6027,1.711
6028,1.736
6029,1.761
6030,1.772
6031,1.794
6032,1.816
6033,1.808
6034,1.798
6035,1.794
6036,1.801
6037,1.816
6038,1.834
6039,1.87
6040,1.917
6041,1.96
6042,1.978
6043,1.935
6044,1.899
6045,1.866
6046,1.855
6047,1.852
6048,1.863
6049,1.852
6050,1.808
6051,1.765
6052,1.732
6053,1.743
6054,1.761
6055,1.787
6056,1.798
6057,1.798
6058,1.79
6059,1.794
6060,1.805
6061,1.823
6062,1.845
6063,1.863
6064,1.866
6065,1.841
6066,1.819
6067,1.826
6068,1.837
6069,1.837
6070,1.83
6071,1.841
6072,1.87
6073,1.881
6074,1.863
6075,1.841
6076,1.805
6077,1.779
6078,1.747
6079,1.718
6080,1.696
6081,1.725
6082,1.834
6083,1.96
6084,1.986
6085,1.96
6086,1.877
6087,1.783
6088,1.581
6089,1.291
6090,1.364
6091,1.432
6092,1.906
6093,2.326
6094,2.416
6095,2.246
6096,2.138
6097,2.206
6098,2.203
6099,1.96
6100,1.675
6101,1.461
6102,1.468
6103,1.718
6104,2.04
6105,2.275
6106,2.456
6107,2.59
6108,2.412
6109,2.029
6110,1.667
6111,1.291
6112,0.9657
6113,1.045
6114,1.161
6115,1.255
6116,1.335
6117,1.4
6118,1.461
6119,1.505
6120,1.548
6121,1.66
6122,1.837
6123,1.957
6124,2.065
6125,2.127
6126,2.134
6127,2.116
6128,2.112
6129,2.138
6130,2.192
6131,2.264
6132,2.315
6133,2.293
6134,2.213
6135,2.123
6136,2.047
6137,1.975
6138,1.884
6139,1.798
6140,1.725
6141,1.678
6142,1.657
6143,1.642
6144,1.631
6145,1.62
6146,1.62
6147,1.609
6148,1.591
6149,1.588
6150,1.595
6151,1.588
6152,1.57
6153,1.555
6154,1.562
6155,1.591
6156,1.657
6157,1.751
6158,1.837
6159,1.895
6160,1.913
6161,1.921
6162,1.928
6163,1.946
6164,1.957
6165,1.964
6166,1.971
6167,1.989
6168,2.011
6169,2.011
6170,2.015
6171,1.993
6172,1.949
6173,1.884
6174,1.852
6175,1.837
6176,1.819
6177,1.798
6178,1.769
6179,1.743
6180,1.736
6181,1.765
6182,1.798
6183,1.816
6184,1.787
6185,1.769
6186,1.761
6187,1.761
6188,1.754
6189,1.722
6190,1.707
6191,1.711
6192,1.743
6193,1.779
6194,1.805
6195,1.808
6196,1.751
6197,1.718
6198,1.826
6199,2.098
6200,2.181
6201,2.047
6202,1.946
6203,1.921
6204,1.91
6205,1.899
6206,1.859
6207,1.794
6208,1.783
6209,1.823
6210,1.83
6211,1.79
6212,1.769
6213,1.758
6214,1.736
6215,1.718
6216,1.693
6217,1.693
6218,1.722
6219,1.754
6220,1.783
6221,1.83
6222,1.855
6223,1.852
6224,1.845
6225,1.852
6226,1.881
6227,1.913
6228,1.931
6229,1.917
6230,1.899
6231,1.884
6232,1.866
6233,1.845
6234,1.826
6235,1.812
6236,1.801
6237,1.805
6238,1.805
6239,1.812
6240,1.816
6241,1.808
6242,1.805
6243,1.798
6244,1.798
6245,1.83
6246,1.863
6247,1.881
6248,1.881
6249,1.845
6250,1.816
6251,1.816
6252,1.816
6253,1.826
6254,1.852
6255,1.87
6256,1.855
6257,1.826
6258,1.805
6259,1.779
6260,1.765
6261,1.769
6262,1.787
6263,1.819
6264,1.83
6265,1.819
6266,1.808
6267,1.819
6268,1.874
6269,1.83
6270,1.74
6271,1.711
6272,1.772
6273,1.852
6274,1.884
6275,1.877
6276,1.859
6277,1.848
6278,1.845
6279,1.841
6280,1.83
6281,1.812
6282,1.808
6283,1.808
6284,1.816
6285,1.83
6286,1.841
6287,1.855
6288,1.87
6289,1.877
6290,1.863
6291,1.83
6292,1.79
6293,1.794
6294,1.808
6295,1.808
6296,1.801
6297,1.783
6298,1.761
6299,1.765
6300,1.765
6301,1.765
6302,1.765
6303,1.754
6304,1.776
6305,1.801
6306,1.841
6307,1.881
6308,1.91
6309,1.939
6310,1.957
6311,1.953
6312,1.935
6313,1.917
6314,1.888
6315,1.881
6316,1.877
6317,1.863
6318,1.837
6319,1.819
6320,1.79
6321,1.776
6322,1.765
6323,1.754
6324,1.725
6325,1.725
6326,1.743
6327,1.772
6328,1.798
6329,1.801
6330,1.819
6331,1.845
6332,1.877
6333,1.899
6334,1.881
6335,1.845
6336,1.808
6337,1.783
6338,1.761
6339,1.765
6340,1.79
6341,1.816
6342,1.841
6343,1.874
6344,1.895
6345,1.902
6346,1.877
6347,1.855
6348,1.837
6349,1.819
6350,1.823
6351,1.834
6352,1.816
6353,1.787
6354,1.776
6355,1.798
6356,1.848
6357,1.899
6358,1.949
6359,1.96
6360,1.942
6361,1.895
6362,1.841
6363,1.696
6364,1.349
6365,1.288
6366,1.367
6367,1.624
6368,2.004
6369,2.333
6370,2.387
6371,2.232
6372,2.308
6373,2.409
6374,2.17
6375,1.588
6376,1.06
6377,1.168
6378,1.476
6379,2.17
6380,2.535
6381,2.496
6382,2.315
6383,2.033
6384,1.747
6385,1.523
6386,1.335
6387,1.15
6388,1.194
6389,1.28
6390,1.356
6391,1.418
6392,1.472
6393,1.519
6394,1.562
6395,1.772
6396,1.964
6397,2.051
6398,2.065
6399,2.047
6400,2.043
6401,2.054
6402,2.127
6403,2.195
6404,2.25
6405,2.293
6406,2.326
6407,2.333
6408,2.318
6409,2.235
6410,2.127
6411,1.968
6412,1.841
6413,1.747
6414,1.653
6415,1.57
6416,1.512
6417,1.479
6418,1.476
6419,1.465
6420,1.458
6421,1.479
6422,1.501
6423,1.519
6424,1.526
6425,1.573
6426,1.631
6427,1.678
6428,1.732
6429,1.776
6430,1.812
6431,1.863
6432,1.902
6433,1.946
6434,1.989
6435,2.033
6436,2.04
6437,2.036
6438,2.029
6439,2.022
6440,2.007
6441,1.982
6442,1.975
6443,1.942
6444,1.899
6445,1.884
6446,1.881
6447,1.859
6448,1.826
6449,1.772
6450,1.743
6451,1.704
6452,1.678
6453,1.693
6454,1.707
6455,1.736
6456,1.751
6457,1.769
6458,1.783
6459,1.798
6460,1.819
6461,1.805
6462,1.794
6463,1.783
6464,1.808
6465,1.823
6466,1.87
6467,1.902
6468,1.913
6469,1.906
6470,1.87
6471,1.801
6472,1.743
6473,1.711
6474,1.747
6475,1.798
6476,2.043
6477,2.268
6478,2.112
6479,1.953
6480,2.007
6481,2.054
6482,1.935
6483,1.758
6484,1.649
6485,1.667
6486,1.7
6487,1.685
6488,1.675
6489,1.649
6490,1.606
6491,1.537
6492,1.534
6493,1.544
6494,1.588
6495,1.638
6496,1.671
6497,1.729
6498,1.816
6499,1.942
6500,2.033
6501,2.076
6502,2.08
6503,2.043
6504,2.025
6505,2.018
6506,2.033
6507,2.091
6508,2.072
6509,2.025
6510,1.906
6511,1.819
6512,1.79
6513,1.805
6514,1.801
6515,1.772
6516,1.765
6517,1.747
6518,1.765
6519,1.772
6520,1.801
6521,1.816
6522,1.798
6523,1.765
6524,1.743
6525,1.736
6526,1.736
6527,1.747
6528,1.747
6529,1.751
6530,1.772
6531,1.816
6532,1.837
6533,1.826
6534,1.808
6535,1.823
6536,1.812
6537,1.79
6538,1.769
6539,1.783
6540,1.823
6541,1.848
6542,1.852
6543,1.826
6544,1.841
6545,1.881
6546,1.895
6547,1.877
6548,1.841
6549,1.834
6550,1.866
6551,1.899
6552,1.902
6553,1.906
6554,1.892
6555,1.874
6556,1.874
6557,1.863
6558,1.852
6559,1.819
6560,1.826
6561,1.845
6562,1.826
6563,1.808
6564,1.779
6565,1.787
6566,1.794
6567,1.769
6568,1.747
6569,1.74
6570,1.732
6571,1.751
6572,1.783
6573,1.808
6574,1.794
6575,1.776
6576,1.776
6577,1.776
6578,1.776
6579,1.805
6580,1.841
6581,1.845
6582,1.859
6583,1.877
6584,1.874
6585,1.881
6586,1.874
6587,1.892
6588,1.913
6589,1.899
6590,1.877
6591,1.859
6592,1.855
6593,1.855
6594,1.859
6595,1.841
6596,1.816
6597,1.787
6598,1.772
6599,1.751
6600,1.754
6601,1.765
6602,1.794
6603,1.812
6604,1.841
6605,1.837
6606,1.83
6607,1.823
6608,1.837
6609,1.863
6610,1.863
6611,1.87
6612,1.877
6613,1.874
6614,1.845
6615,1.823
6616,1.834
6617,1.87
6618,1.899
6619,1.91
6620,1.921
6621,1.921
6622,1.884
6623,1.841
6624,1.83
6625,1.823
6626,1.798
6627,1.732
6628,1.693
6629,1.685
6630,1.725
6631,1.743
6632,1.761
6633,1.769
6634,1.761
6635,1.747
6636,1.718
6637,1.682
6638,1.653
6639,1.602
6640,1.479
6641,1.439
6642,1.497
6643,1.537
6644,1.584
6645,2.033
6646,2.626
6647,2.763
6648,2.763
6649,2.767
6650,2.582
6651,1.906
6652,0.9657
6653,1.031
6654,1.165
6655,1.899
6656,2.478
6657,2.763
6658,2.723
6659,2.311
6660,1.888
6661,1.642
6662,1.494
6663,1.338
6664,1.147
6665,1.034
6666,1.147
6667,1.248
6668,1.327
6669,1.4
6670,1.454
6671,1.505
6672,1.541
6673,1.581
6674,1.704
6675,1.942
6676,2.08
6677,2.203
6678,2.322
6679,2.434
6680,2.514
6681,2.557
6682,2.579
6683,2.535
6684,2.434
6685,2.304
6686,2.181
6687,2.004
6688,1.845
6689,1.682
6690,1.566
6691,1.476
6692,1.411
6693,1.374
6694,1.342
6695,1.342
6696,1.378
6697,1.447
6698,1.443
6699,1.454
6700,1.479
6701,1.508
6702,1.526
6703,1.584
6704,1.671
6705,1.747
6706,1.837
6707,1.924
6708,2.022
6709,2.047
6710,2.083
6711,2.065
6712,2.043
6713,2.004
6714,1.986
6715,2.0
6716,1.96
6717,1.921
6718,1.888
6719,1.906
6720,1.892
6721,1.902
6722,1.899
6723,1.917
6724,1.859
6725,1.816
6726,1.769
6727,1.714
6728,1.704
6729,1.711
6730,1.754
6731,1.74
6732,1.758
6733,1.776
6734,1.819
6735,1.801
6736,1.816
6737,1.823
6738,1.819
6739,1.852
6740,1.874
6741,1.866
6742,1.805
6743,1.776
6744,1.743
6745,1.743
6746,1.74
6747,1.765
6748,1.783
6749,1.761
6750,1.732
6751,1.646
6752,1.555
6753,1.66
6754,2.033
6755,2.25
6756,2.261
6757,2.242
6758,2.203
6759,2.094
6760,1.993
6761,1.964
6762,1.892
6763,1.812
6764,1.761
6765,1.751
6766,1.787
6767,1.765
6768,1.707
6769,1.635
6770,1.566
6771,1.548
6772,1.577
6773,1.613
6774,1.617
6775,1.646
6776,1.689
6777,1.761
6778,1.841
6779,1.888
6780,1.939
6781,1.942
6782,1.946
6783,1.931
6784,1.928
6785,1.899
6786,1.906
6787,1.917
6788,1.942
6789,1.931
6790,1.917
6791,1.902
6792,1.859
6793,1.852
6794,1.83
6795,1.816
6796,1.769
6797,1.758
6798,1.732
6799,1.714
6800,1.704
6801,1.736
6802,1.772
6803,1.765
6804,1.794
6805,1.808
6806,1.823
6807,1.83
6808,1.855
6809,1.877
6810,1.866
6811,1.852
6812,1.823
6813,1.801
6814,1.779
6815,1.801
6816,1.837
6817,1.855
6818,1.877
6819,1.895
6820,1.892
6821,1.87
6822,1.855
6823,1.837
6824,1.816
6825,1.816
6826,1.837
6827,1.874
6828,1.87
6829,1.87
6830,1.866
6831,1.841
6832,1.812
6833,1.79
6834,1.79
6835,1.787
6836,1.808
6837,1.826
6838,1.852
6839,1.841
6840,1.826
6841,1.823
6842,1.801
6843,1.816
6844,1.819
6845,1.83
6846,1.819
6847,1.816
6848,1.837
6849,1.808
6850,1.826
6851,1.798
6852,1.812
6853,1.798
6854,1.79
6855,1.79
6856,1.769
6857,1.747
6858,1.74
6859,1.776
6860,1.765
6861,1.816
6862,1.805
6863,1.83
6864,1.819
6865,1.83
6866,1.863
6867,1.855
6868,1.877
6869,1.895
6870,1.946
6871,1.928
6872,1.964
6873,1.971
6874,1.968
6875,1.91
6876,1.87
6877,1.837
6878,1.794
6879,1.765
6880,1.758
6881,1.754
6882,1.714
6883,1.736
6884,1.761
6885,1.808
6886,1.837
6887,1.87
6888,1.884
6889,1.852
6890,1.852
6891,1.852
6892,1.866
6893,1.866
6894,1.848
6895,1.808
6896,1.751
6897,1.725
6898,1.732
6899,1.736
6900,1.743
6901,1.769
6902,1.783
6903,1.801
6904,1.816
6905,1.866
6906,1.895
6907,1.895
6908,1.87
6909,1.859
6910,1.855
6911,1.845
6912,1.877
6913,1.913
6914,1.902
6915,1.884
6916,1.852
6917,1.736
6918,1.537
6919,1.317
6920,1.353
6921,1.418
6922,1.472
6923,1.573
6924,2.13
6925,2.76
6926,2.763
6927,2.742
6928,2.322
6929,2.029
6930,1.902
6931,1.682
6932,1.107
6933,1.107
6934,1.215
6935,1.913
6936,2.434
6937,2.553
6938,2.369
6939,1.978
6940,1.801
6941,1.776
6942,1.685
6943,1.479
6944,1.313
6945,1.277
6946,1.233
6947,1.306
6948,1.382
6949,1.443
6950,1.497
6951,1.541
6952,1.573
6953,1.722
6954,1.928
6955,2.011
6956,2.054
6957,2.091
6958,2.17
6959,2.261
6960,2.344
6961,2.427
6962,2.467
6963,2.496
6964,2.456
6965,2.387
6966,2.261
6967,2.105
6968,1.935
6969,1.79
6970,1.66
6971,1.53
6972,1.443
6973,1.345
6974,1.327
6975,1.331
6976,1.378
6977,1.418
6978,1.476
6979,1.523
6980,1.552
6981,1.602
6982,1.635
6983,1.711
6984,1.732
6985,1.794
6986,1.837
6987,1.87
6988,1.892
6989,1.913
6990,1.939
6991,1.949
6992,1.975
6993,1.996
6994,2.004
6995,1.968
6996,1.96
6997,1.928
6998,1.899
6999,1.852
7000,1.834
7001,1.837
7002,1.845
7003,1.859
7004,1.87
7005,1.863
7006,1.83
7007,1.845
7008,1.852
7009,1.859
7010,1.852
7011,1.859
7012,1.834
7013,1.79
7014,1.732
7015,1.722
7016,1.736
7017,1.758
7018,1.779
7019,1.812
7020,1.845
7021,1.837
7022,1.841
7023,1.823
7024,1.816
7025,1.779
7026,1.779
7027,1.765
7028,1.79
7029,1.776
7030,1.696
7031,1.646
7032,1.736
7033,2.054
7034,2.123
7035,1.989
7036,1.989
7037,2.156
7038,2.221
7039,2.177
7040,2.022
7041,1.848
7042,1.714
7043,1.628
7044,1.591
7045,1.548
7046,1.559
7047,1.548
7048,1.588
7049,1.591
7050,1.606
7051,1.624
7052,1.667
7053,1.736
7054,1.787
7055,1.826
7056,1.863
7057,1.921
7058,1.942
7059,2.007
7060,2.022
7061,2.072
7062,2.083
7063,2.098
7064,2.08
7065,2.018
7066,1.971
7067,1.917
7068,1.87
7069,1.816
7070,1.79
7071,1.747
7072,1.732
7073,1.682
7074,1.704
7075,1.704
7076,1.729
7077,1.725
7078,1.74
7079,1.758
7080,1.743
7081,1.747
7082,1.725
7083,1.743
7084,1.729
7085,1.769
7086,1.758
7087,1.79
7088,1.79
7089,1.841
7090,1.877
7091,1.902
7092,1.906
7093,1.892
7094,1.91
7095,1.892
7096,1.91
7097,1.87
7098,1.874
7099,1.845
7100,1.87
7101,1.877
7102,1.895
7103,1.899
7104,1.899
7105,1.899
7106,1.845
7107,1.83
7108,1.801
7109,1.812
7110,1.783
7111,1.805
7112,1.779
7113,1.772
7114,1.736
7115,1.732
7116,1.747
7117,1.751
7118,1.812
7119,1.841
7120,1.87
7121,1.855
7122,1.866
7123,1.845
7124,1.845
7125,1.808
7126,1.808
7127,1.79
7128,1.761
7129,1.79
7130,1.816
7131,1.881
7132,1.87
7133,1.884
7134,1.884
7135,1.866
7136,1.841
7137,1.837
7138,1.808
7139,1.801
7140,1.776
7141,1.779
7142,1.79
7143,1.761
7144,1.765
7145,1.74
7146,1.743
7147,1.758
7148,1.819
7149,1.859
7150,1.881
7151,1.866
7152,1.884
7153,1.877
7154,1.87
7155,1.859
7156,1.859
7157,1.87
7158,1.877
7159,1.899
7160,1.902
7161,1.906
7162,1.881
7163,1.884
7164,1.881
7165,1.899
7166,1.91
7167,1.931
7168,1.906
7169,1.859
7170,1.812
7171,1.779
7172,1.754
7173,1.718
7174,1.685
7175,1.671
7176,1.704
7177,1.751
7178,1.801
7179,1.816
7180,1.808
7181,1.783
7182,1.765
7183,1.779
7184,1.83
7185,1.859
7186,1.863
7187,1.852
7188,1.837
7189,1.79
7190,1.729
7191,1.707
7192,1.714
7193,1.769
7194,1.852
7195,1.942
7196,1.982
7197,1.96
7198,1.758
7199,1.407
7200,1.345
7201,1.414
7202,1.472
7203,1.628
7204,2.25
7205,2.716
7206,2.716
7207,2.456
7208,2.152
7209,1.913
7210,1.816
7211,1.902
7212,2.134
7213,1.884
7214,1.331
7215,1.107
7216,1.421
7217,2.065
7218,2.557
7219,2.608
7220,2.369
7221,2.058
7222,1.823
7223,1.581
7224,1.324
7225,1.114
7226,1.121
7227,1.226
7228,1.306
7229,1.374
7230,1.443
7231,1.497
7232,1.541
7233,1.573
7234,1.779
7235,1.939
7236,1.993
7237,2.018
7238,2.062
7239,2.109
7240,2.148
7241,2.181
7242,2.271
7243,2.347
7244,2.405
7245,2.416
7246,2.369
7247,2.271
7248,2.141
7249,1.986
7250,1.852
7251,1.747
7252,1.685
7253,1.649
7254,1.613
7255,1.552
7256,1.505
7257,1.472
7258,1.458
7259,1.483
7260,1.508
7261,1.537
7262,1.544
7263,1.562
7264,1.588
7265,1.609
7266,1.649
7267,1.707
7268,1.754
7269,1.816
7270,1.877
7271,1.928
7272,1.928
7273,1.906
7274,1.91
7275,1.931
7276,1.935
7277,1.913
7278,1.917
7279,1.957
7280,2.004
7281,2.029
7282,2.018
7283,1.989
7284,1.957
7285,1.921
7286,1.892
7287,1.859
7288,1.845
7289,1.826
7290,1.798
7291,1.769
7292,1.758
7293,1.769
7294,1.779
7295,1.794
7296,1.808
7297,1.816
7298,1.83
7299,1.841
7300,1.845
7301,1.83
7302,1.812
7303,1.787
7304,1.743
7305,1.725
7306,1.722
7307,1.667
7308,1.49
7309,1.407
7310,1.754
7311,2.145
7312,2.105
7313,1.913
7314,1.978
7315,2.148
7316,2.199
7317,2.116
7318,1.935
7319,1.736
7320,1.635
7321,1.617
7322,1.606
7323,1.62
7324,1.649
7325,1.675
7326,1.696
7327,1.718
7328,1.747
7329,1.812
7330,1.87
7331,1.931
7332,1.953
7333,1.953
7334,1.928
7335,1.906
7336,1.877
7337,1.877
7338,1.888
7339,1.913
7340,1.899
7341,1.892
7342,1.884
7343,1.874
7344,1.845
7345,1.819
7346,1.808
7347,1.805
7348,1.79
7349,1.794
7350,1.787
7351,1.776
7352,1.736
7353,1.732
7354,1.736
7355,1.751
7356,1.765
7357,1.787
7358,1.826
7359,1.848
7360,1.848
7361,1.863
7362,1.855
7363,1.859
7364,1.874
7365,1.877
7366,1.877
7367,1.884
7368,1.902
7369,1.874
7370,1.902
7371,1.906
7372,1.877
7373,1.682
7374,1.57
7375,1.631
7376,1.779
7377,1.863
7378,1.863
7379,1.845
7380,1.841
7381,1.852
7382,1.855
7383,1.826
7384,1.79
7385,1.776
7386,1.776
7387,1.805
7388,1.812
7389,1.845
7390,1.859
7391,1.877
7392,1.866
7393,1.845
7394,1.848
7395,1.826
7396,1.826
7397,1.801
7398,1.794
7399,1.783
7400,1.79
7401,1.801
7402,1.826
7403,1.863
7404,1.899
7405,1.902
7406,1.866
7407,1.848
7408,1.83
7409,1.837
7410,1.852
7411,1.852
7412,1.845
7413,1.834
7414,1.852
7415,1.874
7416,1.87
7417,1.837
7418,1.816
7419,1.812
7420,1.823
7421,1.808
7422,1.805
7423,1.808
7424,1.805
7425,1.816
7426,1.83
7427,1.859
7428,1.859
7429,1.845
7430,1.819
7431,1.816
7432,1.808
7433,1.794
7434,1.769
7435,1.729
7436,1.696
7437,1.689
7438,1.704
7439,1.761
7440,1.79
7441,1.816
7442,1.826
7443,1.874
7444,1.921
7445,1.942
7446,1.946
7447,1.902
7448,1.881
7449,1.866
7450,1.863
7451,1.852
7452,1.841
7453,1.837
7454,1.852
7455,1.863
7456,1.863
7457,1.841
7458,1.834
7459,1.816
7460,1.794
7461,1.772
7462,1.761
7463,1.779
7464,1.805
7465,1.826
7466,1.826
7467,1.808
7468,1.794
7469,1.779
7470,1.801
7471,1.863
7472,1.913
7473,1.899
7474,1.845
7475,1.779
7476,1.631
7477,1.327
7478,1.353
7479,1.421
7480,1.591
7481,2.036
7482,2.311
7483,2.365
7484,2.329
7485,2.38
7486,2.369
7487,2.069
7488,1.599
7489,1.172
7490,1.201
7491,1.476
7492,2.21
7493,2.666
7494,2.72
7495,2.669
7496,2.55
7497,2.221
7498,1.74
7499,1.244
7500,0.9693
7501,0.9874
7502,1.114
7503,1.212
7504,1.295
7505,1.367
7506,1.429
7507,1.487
7508,1.725
7509,1.928
7510,2.0
7511,2.015
7512,2.022
7513,2.036
7514,2.058
7515,2.062
7516,2.043
7517,2.062
7518,2.109
7519,2.163
7520,2.199
7521,2.21
7522,2.192
7523,2.127
7524,2.022
7525,1.91
7526,1.826
7527,1.736
7528,1.675
7529,1.628
7530,1.581
7531,1.544
7532,1.526
7533,1.541
7534,1.591
7535,1.638
7536,1.667
7537,1.682
7538,1.707
7539,1.718
7540,1.718
7541,1.732
7542,1.751
7543,1.751
7544,1.754
7545,1.776
7546,1.801
7547,1.823
7548,1.845
7549,1.888
7550,1.942
7551,1.968
7552,1.971
7553,1.957
7554,1.928
7555,1.906
7556,1.877
7557,1.834
7558,1.83
7559,1.83
7560,1.834
7561,1.83
7562,1.816
7563,1.816
7564,1.837
7565,1.863
7566,1.877
7567,1.888
7568,1.895
7569,1.884
7570,1.841
7571,1.794
7572,1.765
7573,1.761
7574,1.769
7575,1.772
7576,1.779
7577,1.787
7578,1.801
7579,1.783
7580,1.758
7581,1.747
7582,1.722
7583,1.696
7584,1.682
7585,1.729
7586,1.949
7587,2.235
7588,2.257
7589,2.109
7590,2.043
7591,2.047
7592,1.986
7593,1.848
7594,1.704
7595,1.62
7596,1.642
7597,1.693
7598,1.707
7599,1.704
7600,1.704
7601,1.74
7602,1.769
7603,1.769
7604,1.751
7605,1.743
7606,1.769
7607,1.801
7608,1.805
7609,1.801
7610,1.816
7611,1.83
7612,1.866
7613,1.892
7614,1.913
7615,1.924
7616,1.917
7617,1.899
7618,1.881
7619,1.866
7620,1.874
7621,1.902
7622,1.91
7623,1.881
7624,1.841
7625,1.801
7626,1.758
7627,1.729
7628,1.729
7629,1.736
7630,1.761
7631,1.776
7632,1.808
7633,1.819
7634,1.819
7635,1.808
7636,1.816
7637,1.83
7638,1.855
7639,1.87
7640,1.881
7641,1.888
7642,1.884
7643,1.855
7644,1.826
7645,1.808
7646,1.801
7647,1.812
7648,1.808
7649,1.805
7650,1.819
7651,1.845
7652,1.874
7653,1.899
7654,1.931
7655,1.931
7656,1.964
7657,1.968
7658,1.83
7659,1.595
7660,1.508
7661,1.628
7662,1.787
7663,1.837
7664,1.819
7665,1.812
7666,1.837
7667,1.87
7668,1.877
7669,1.852
7670,1.841
7671,1.845
7672,1.87
7673,1.913
7674,1.949
7675,1.982
7676,2.033
7677,1.931
7678,1.74
7679,1.595
7680,1.599
7681,1.678
7682,1.743
7683,1.751
7684,1.747
7685,1.772
7686,1.805
7687,1.834
7688,1.83
7689,1.801
7690,1.79
7691,1.823
7692,1.845
7693,1.83
7694,1.798
7695,1.801
7696,1.845
7697,1.899
7698,1.942
7699,1.982
7700,1.993
7701,1.982
7702,1.953
7703,1.91
7704,1.848
7705,1.74
7706,1.671
7707,1.682
7708,1.754
7709,1.848
7710,1.892
7711,1.892
7712,1.884
7713,1.87
7714,1.848
7715,1.823
7716,1.787
7717,1.754
7718,1.772
7719,1.761
7720,1.769
7721,1.794
7722,1.805
7723,1.808
7724,1.805
7725,1.816
7726,1.841
7727,1.888
7728,1.902
7729,1.906
7730,1.863
7731,1.812
7732,1.79
7733,1.79
7734,1.798
7735,1.805
7736,1.823
7737,1.834
7738,1.852
7739,1.845
7740,1.826
7741,1.79
7742,1.765
7743,1.747
7744,1.758
7745,1.751
7746,1.729
7747,1.729
7748,1.776
7749,1.845
7750,1.971
7751,2.062
7752,2.072
7753,2.022
7754,1.96
7755,1.87
7756,1.566
7757,1.233
7758,1.324
7759,1.667
7760,2.062
7761,2.344
7762,2.427
7763,2.177
7764,1.866
7765,1.935
7766,2.127
7767,1.884
7768,1.324
7769,1.183
7770,1.27
7771,1.798
7772,2.532
7773,2.767
7774,2.51
7775,2.145
7776,1.957
7777,1.805
7778,1.555
7779,1.237
7780,1.085
7781,1.19
7782,1.277
7783,1.36
7784,1.414
7785,1.472
7786,1.631
7787,1.794
7788,1.874
7789,1.888
7790,1.91
7791,1.939
7792,1.953
7793,1.975
7794,2.018
7795,2.062
7796,2.101
7797,2.152
7798,2.228
7799,2.318
7800,2.362
7801,2.315
7802,2.203
7803,2.058
7804,1.91
7805,1.783
7806,1.696
7807,1.646
7808,1.609
7809,1.595
7810,1.617
7811,1.671
7812,1.696
7813,1.689
7814,1.693
7815,1.671
7816,1.628
7817,1.599
7818,1.602
7819,1.631
7820,1.671
7821,1.678
7822,1.693
7823,1.718
7824,1.754
7825,1.805
7826,1.877
7827,1.902
7828,1.931
7829,1.935
7830,1.917
7831,1.913
7832,1.917
7833,1.895
7834,1.866
7835,1.888
7836,1.892
7837,1.888
7838,1.866
7839,1.87
7840,1.87
7841,1.855
7842,1.852
7843,1.866
7844,1.855
7845,1.852
7846,1.837
7847,1.848
7848,1.852
7849,1.841
7850,1.812
7851,1.783
7852,1.751
7853,1.776
7854,1.826
7855,1.855
7856,1.848
7857,1.863
7858,1.888
7859,1.888
7860,1.874
7861,1.848
7862,1.758
7863,1.7
7864,1.704
7865,1.685
7866,1.707
7867,1.953
7868,2.098
7869,1.971
7870,1.837
7871,1.834
7872,1.874
7873,1.816
7874,1.725
7875,1.664
7876,1.675
7877,1.758
7878,1.834
7879,1.848
7880,1.826
7881,1.787
7882,1.758
7883,1.769
7884,1.772
7885,1.801
7886,1.83
7887,1.834
7888,1.834
7889,1.859
7890,1.874
7891,1.881
7892,1.87
7893,1.848
7894,1.819
7895,1.772
7896,1.765
7897,1.808
7898,1.852
7899,1.877
7900,1.881
7901,1.884
7902,1.877
7903,1.866
7904,1.855
7905,1.834
7906,1.848
7907,1.845
7908,1.823
7909,1.808
7910,1.812
7911,1.826
7912,1.816
7913,1.812
7914,1.794
7915,1.798
7916,1.834
7917,1.87
7918,1.874
7919,1.87
7920,1.855
7921,1.823
7922,1.798
7923,1.787
7924,1.787
7925,1.783
7926,1.787
7927,1.826
7928,1.877
7929,1.877
7930,1.852
7931,1.837
7932,1.823
7933,1.794
7934,1.758
7935,1.725
7936,1.725
7937,1.729
7938,1.765
7939,1.779
7940,1.812
7941,1.859
7942,1.899
7943,1.906
7944,1.921
7945,1.928
7946,1.942
7947,1.921
7948,1.917
7949,1.917
7950,1.881
7951,1.816
7952,1.787
7953,1.769
7954,1.772
7955,1.798
7956,1.826
7957,1.841
7958,1.845
7959,1.823
7960,1.776
7961,1.718
7962,1.678
7963,1.7
7964,1.74
7965,1.761
7966,1.754
7967,1.776
7968,1.794
7969,1.823
7970,1.884
7971,1.939
7972,1.942
7973,1.921
7974,1.895
7975,1.892
7976,1.892
7977,1.888
7978,1.863
7979,1.848
7980,1.881
7981,1.921
7982,1.917
7983,1.874
7984,1.819
7985,1.779
7986,1.732
7987,1.704
7988,1.693
7989,1.653
7990,1.638
7991,1.678
7992,1.732
7993,1.758
7994,1.758
7995,1.772
7996,1.841
7997,1.957
7998,2.018
7999,2.018
8000,1.978
8001,1.989
8002,2.018
8003,2.022
8004,1.986
8005,1.939
8006,1.874
8007,1.801
8008,1.769
8009,1.761
8010,1.754
8011,1.714
8012,1.704
8013,1.696
8014,1.714
8015,1.729
8016,1.725
8017,1.729
8018,1.729
8019,1.729
8020,1.743
8021,1.79
8022,1.812
8023,1.845
8024,1.855
8025,1.866
8026,1.902
8027,1.921
8028,1.913
8029,1.906
8030,1.895
8031,1.819
8032,1.736
8033,1.743
8034,1.949
8035,2.072
8036,1.989
8037,1.682
8038,1.248
8039,1.317
8040,1.389
8041,1.447
8042,1.508
8043,2.047
8044,2.767
8045,2.76
8046,2.763
8047,2.402
8048,1.718
8049,0.991
8050,1.107
8051,1.602
8052,2.445
8053,2.572
8054,2.438
8055,2.322
8056,2.04
8057,1.83
8058,1.769
8059,1.66
8060,1.443
8061,1.255
8062,1.161
8063,1.132
8064,1.233
8065,1.309
8066,1.382
8067,1.439
8068,1.497
8069,1.534
8070,1.573
8071,1.602
8072,1.7
8073,1.953
8074,2.127
8075,2.261
8076,2.38
8077,2.488
8078,2.572
8079,2.622
8080,2.593
8081,2.51
8082,2.402
8083,2.261
8084,2.127
8085,2.007
8086,1.924
8087,1.819
8088,1.689
8089,1.541
8090,1.407
8091,1.345
8092,1.302
8093,1.273
8094,1.262
8095,1.277
8096,1.331
8097,1.389
8098,1.439
8099,1.494
8100,1.544
8101,1.609
8102,1.664
8103,1.707
8104,1.765
8105,1.823
8106,1.877
8107,1.949
8108,2.029
8109,2.101
8110,2.148
8111,2.174
8112,2.185
8113,2.174
8114,2.166
8115,2.123
8116,2.072
8117,2.04
8118,1.996
8119,1.928
8120,1.845
8121,1.765
8122,1.689
8123,1.642
8124,1.613
8125,1.599
8126,1.609
8127,1.62
8128,1.635
8129,1.653
8130,1.682
8131,1.74
8132,1.79
8133,1.834
8134,1.855
8135,1.877
8136,1.902
8137,1.91
8138,1.917
8139,1.921
8140,1.913
8141,1.884
8142,1.845
8143,1.816
8144,1.808
8145,1.834
8146,1.859
8147,1.761
8148,1.57
8149,1.548
8150,1.863
8151,2.152
8152,2.091
8153,2.015
8154,2.065
8155,2.072
8156,1.989
8157,1.895
8158,1.779
8159,1.725
8160,1.722
8161,1.714
8162,1.736
8163,1.761
8164,1.736
8165,1.7
8166,1.685
8167,1.693
8168,1.693
8169,1.696
8170,1.707
8171,1.714
8172,1.729
8173,1.747
8174,1.776
8175,1.823
8176,1.863
8177,1.899
8178,1.942
8179,1.989
8180,2.022
8181,2.033
8182,2.018
8183,1.986
8184,1.928
8185,1.859
8186,1.805
8187,1.765
8188,1.743
8189,1.743
8190,1.751
8191,1.754
8192,1.776
8193,1.798
8194,1.819
8195,1.816
8196,1.819
8197,1.794
8198,1.79
8199,1.779
8200,1.787
8201,1.787
8202,1.816
8203,1.855
8204,1.895
8205,1.917
8206,1.928
8207,1.939
8208,1.928
8209,1.895
8210,1.841
8211,1.801
8212,1.776
8213,1.783
8214,1.79
8215,1.808
8216,1.823
8217,1.819
8218,1.812
8219,1.808
8220,1.812
8221,1.808
8222,1.794
8223,1.776
8224,1.765
8225,1.765
8226,1.79
8227,1.79
8228,1.808
8229,1.819
8230,1.823
8231,1.819
8232,1.819
8233,1.834
8234,1.859
8235,1.884
8236,1.888
8237,1.881
8238,1.848
8239,1.823
8240,1.801
8241,1.783
8242,1.772
8243,1.787
8244,1.819
8245,1.845
8246,1.845
8247,1.826
8248,1.834
8249,1.823
8250,1.812
8251,1.801
8252,1.805
8253,1.826
8254,1.848
8255,1.863
8256,1.874
8257,1.866
8258,1.848
8259,1.841
8260,1.826
8261,1.823
8262,1.823
8263,1.823
8264,1.826
8265,1.805
8266,1.79
8267,1.79
8268,1.787
8269,1.801
8270,1.819
8271,1.83
8272,1.852
8273,1.87
8274,1.884
8275,1.884
8276,1.87
8277,1.866
8278,1.884
8279,1.895
8280,1.888
8281,1.834
8282,1.772
8283,1.725
8284,1.707
8285,1.722
8286,1.743
8287,1.769
8288,1.79
8289,1.826
8290,1.859
8291,1.881
8292,1.902
8293,1.91
8294,1.913
8295,1.899
8296,1.866
8297,1.816
8298,1.79
8299,1.787
8300,1.779
8301,1.79
8302,1.816
8303,1.816
8304,1.826
8305,1.852
8306,1.87
8307,1.87
8308,1.852
8309,1.834
8310,1.823
8311,1.812
8312,1.816
8313,1.848
8314,1.91
8315,1.949
8316,1.939
8317,1.863
8318,1.722
8319,1.555
8320,1.309
8321,1.317
8322,1.392
8323,1.45
8324,1.505
8325,1.653
8326,2.362
8327,2.763
8328,2.767
8329,2.333
8330,2.101
8331,2.163
8332,2.015
8333,1.335
8334,1.11
8335,1.215
8336,1.537
8337,2.543
8338,2.763
8339,2.767
8340,2.452
8341,2.091
8342,1.902
8343,1.79
8344,1.57
8345,1.266
8346,1.034
8347,1.052
8348,1.165
8349,1.255
8350,1.335
8351,1.407
8352,1.458
8353,1.505
8354,1.548
8355,1.584
8356,1.718
8357,1.866
8358,1.989
8359,2.112
8360,2.224
8361,2.34
8362,2.43
8363,2.488
8364,2.517
8365,2.517
8366,2.492
8367,2.43
8368,2.297
8369,2.13
8370,1.946
8371,1.769
8372,1.638
8373,1.548
8374,1.479
8375,1.411
8376,1.338
8377,1.317
8378,1.317
8379,1.36
8380,1.418
8381,1.465
8382,1.515
8383,1.544
8384,1.577
8385,1.613
8386,1.671
8387,1.729
8388,1.787
8389,1.826
8390,1.859
8391,1.91
8392,1.939
8393,1.968
8394,1.996
8395,2.011
8396,2.029
8397,2.018
8398,2.022
8399,2.025
8400,2.043
8401,2.054
8402,2.033
8403,2.018
8404,1.968
8405,1.935
8406,1.888
8407,1.852
8408,1.816
8409,1.772
8410,1.772
8411,1.743
8412,1.761
8413,1.761
8414,1.765
8415,1.761
8416,1.754
8417,1.761
8418,1.754
8419,1.751
8420,1.747
8421,1.758
8422,1.769
8423,1.769
8424,1.765
8425,1.743
8426,1.736
8427,1.722
8428,1.693
8429,1.707
8430,1.725
8431,1.704
8432,1.718
8433,2.004
8434,2.268
8435,2.127
8436,1.913
8437,1.949
8438,2.062
8439,2.069
8440,2.022
8441,1.921
8442,1.826
8443,1.812
8444,1.816
8445,1.823
8446,1.798
8447,1.743
8448,1.657
8449,1.602
8450,1.573
8451,1.581
8452,1.613
8453,1.653
8454,1.707
8455,1.754
8456,1.801
8457,1.841
8458,1.863
8459,1.877
8460,1.866
8461,1.881
8462,1.892
8463,1.902
8464,1.931
8465,1.946
8466,1.968
8467,1.971
8468,1.968
8469,1.939
8470,1.888
8471,1.848
8472,1.79
8473,1.776
8474,1.761
8475,1.761
8476,1.779
8477,1.779
8478,1.808
8479,1.819
8480,1.834
8481,1.859
8482,1.852
8483,1.863
8484,1.855
8485,1.852
8486,1.845
8487,1.812
8488,1.79
8489,1.772
8490,1.776
8491,1.783
8492,1.776
8493,1.787
8494,1.783
8495,1.801
8496,1.816
8497,1.83
8498,1.841
8499,1.852
8500,1.866
8501,1.866
8502,1.852
8503,1.837
8504,1.819
8505,1.812
8506,1.79
8507,1.779
8508,1.779
8509,1.805
8510,1.83
8511,1.837
8512,1.841
8513,1.841
8514,1.852
8515,1.855
8516,1.852
8517,1.837
8518,1.819
8519,1.808
8520,1.794
8521,1.79
8522,1.79
8523,1.787
8524,1.805
8525,1.812
8526,1.837
8527,1.866
8528,1.877
8529,1.881
8530,1.859
8531,1.859
8532,1.845
8533,1.826
8534,1.83
8535,1.834
8536,1.837
8537,1.834
8538,1.83
8539,1.837
8540,1.841
8541,1.834
8542,1.83
8543,1.808
8544,1.794
8545,1.783
8546,1.787
8547,1.798
8548,1.783
8549,1.79
8550,1.794
8551,1.808
8552,1.801
8553,1.798
8554,1.808
8555,1.837
8556,1.863
8557,1.866
8558,1.859
8559,1.841
8560,1.841
8561,1.899
8562,1.939
8563,1.931
8564,1.906
8565,1.859
8566,1.812
8567,1.779
8568,1.769
8569,1.779
8570,1.801
8571,1.837
8572,1.874
8573,1.855
8574,1.83
8575,1.816
8576,1.841
8577,1.855
8578,1.848
8579,1.826
8580,1.798
8581,1.779
8582,1.776
8583,1.779
8584,1.772
8585,1.761
8586,1.787
8587,1.823
8588,1.866
8589,1.895
8590,1.899
8591,1.884
8592,1.845
8593,1.787
8594,1.761
8595,1.765
8596,1.823
8597,1.859
8598,1.845
8599,1.812
8600,1.772
8601,1.588
8602,1.306
8603,1.374
8604,1.436
8605,1.685
8606,1.939
8607,2.188
8608,2.34
8609,2.365
8610,2.261
8611,2.08
8612,1.939
8613,1.91
8614,1.859
8615,1.682
8616,1.479
8617,1.609
8618,2.036
8619,2.423
8620,2.553
8621,2.604
8622,2.517
8623,2.011
8624,1.794
8625,1.378
8626,1.042
8627,1.016
8628,1.121
8629,1.222
8630,1.309
8631,1.378
8632,1.439
8633,1.49
8634,1.552
8635,1.765
8636,1.935
8637,2.051
8638,2.098
8639,2.109
8640,2.134
8641,2.13
8642,2.112
8643,2.13
8644,2.17
8645,2.221
8646,2.268
8647,2.257
8648,2.195
8649,2.087
8650,1.978
8651,1.884
8652,1.798
8653,1.722
8654,1.649
8655,1.581
8656,1.53
8657,1.512
8658,1.526
8659,1.537
8660,1.548
8661,1.57
8662,1.591
8663,1.602
8664,1.635
8665,1.664
8666,1.675
8667,1.685
8668,1.718
8669,1.743
8670,1.776
8671,1.805
8672,1.866
8673,1.91
8674,1.931
8675,1.968
8676,2.015
8677,2.054
8678,2.062
8679,2.029
8680,1.989
8681,1.942
8682,1.913
8683,1.902
8684,1.902
8685,1.881
8686,1.859
8687,1.863
8688,1.877
8689,1.866
8690,1.845
8691,1.834
8692,1.801
8693,1.776
8694,1.754
8695,1.751
8696,1.747
8697,1.74
8698,1.722
8699,1.725
8700,1.747
8701,1.783
8702,1.805
8703,1.805
8704,1.801
8705,1.801
8706,1.794
8707,1.769
8708,1.754
8709,1.743
8710,1.704
8711,1.671
8712,1.765
8713,2.043
8714,2.232
8715,2.116
8716,1.888
8717,1.834
8718,1.928
8719,1.953
8720,1.87
8721,1.769
8722,1.718
8723,1.729
8724,1.758
8725,1.743
8726,1.722
8727,1.758
8728,1.801
8729,1.812
8730,1.794
8731,1.761
8732,1.736
8733,1.732
8734,1.761
8735,1.798
8736,1.819
8737,1.841
8738,1.859
8739,1.888
8740,1.928
8741,1.971
8742,2.0
8743,1.986
8744,1.946
8745,1.91
8746,1.845
8747,1.794
8748,1.765
8749,1.765
8750,1.787
8751,1.819
8752,1.837
8753,1.845
8754,1.834
8755,1.826
8756,1.826
8757,1.798
8758,1.776
8759,1.751
8760,1.732
8761,1.74
8762,1.751
8763,1.761
8764,1.776
8765,1.794
8766,1.823
8767,1.855
8768,1.87
8769,1.881
8770,1.892
8771,1.892
8772,1.895
8773,1.884
8774,1.87
8775,1.863
8776,1.855
8777,1.852
8778,1.859
8779,1.852
8780,1.845
8781,1.841
8782,1.834
8783,1.816
8784,1.79
8785,1.769
8786,1.747
8787,1.747
8788,1.761
8789,1.79
8790,1.812
8791,1.83
8792,1.83
8793,1.819
8794,1.819
8795,1.819
8796,1.808
8797,1.783
8798,1.769
8799,1.805
8800,1.834
8801,1.874
8802,1.899
8803,1.91
8804,1.913
8805,1.902
8806,1.881
8807,1.87
8808,1.863
8809,1.859
8810,1.837
8811,1.794
8812,1.776
8813,1.758
8814,1.772
8815,1.874
8816,2.091
8817,2.112
8818,1.975
8819,1.646
8820,1.382
8821,1.313
8822,1.432
8823,1.609
8824,1.787
8825,1.953
8826,1.946
8827,1.826
8828,1.736
8829,1.747
8830,1.826
8831,1.921
8832,1.996
8833,2.004
8834,1.928
8835,1.834
8836,1.816
8837,1.87
8838,1.935
8839,1.986
8840,2.004
8841,2.004
8842,2.069
8843,2.072
8844,1.902
8845,1.689
8846,1.57
8847,1.584
8848,1.667
8849,1.736
8850,1.779
8851,1.826
8852,1.863
8853,1.87
8854,1.852
8855,1.816
8856,1.794
8857,1.79
8858,1.83
8859,1.874
8860,1.888
8861,1.863
8862,1.808
8863,1.765
8864,1.761
8865,1.761
8866,1.801
8867,1.874
8868,1.935
8869,1.96
8870,1.939
8871,1.899
8872,1.845
8873,1.769
8874,1.693
8875,1.667
8876,1.682
8877,1.711
8878,1.747
8879,1.808
8880,1.913
8881,1.996
8882,2.0
8883,1.906
8884,1.765
8885,1.591
8886,1.309
8887,1.345
8888,1.418
8889,1.74
8890,2.134
8891,2.369
8892,2.394
8893,2.221
8894,2.148
8895,2.17
8896,1.935
8897,1.45
8898,1.175
8899,1.27
8900,1.845
8901,2.517
8902,2.673
8903,2.402
8904,2.127
8905,1.993
8906,1.91
8907,1.736
8908,1.443
8909,1.15
8910,1.136
8911,1.233
8912,1.317
8913,1.389
8914,1.501
8915,1.642
8916,1.758
8917,1.874
8918,1.957
8919,1.957
8920,1.957
8921,1.946
8922,1.946
8923,1.964
8924,2.0
8925,2.043
8926,2.101
8927,2.159
8928,2.239
8929,2.282
8930,2.253
8931,2.185
8932,2.119
8933,2.062
8934,2.004
8935,1.913
8936,1.794
8937,1.675
8938,1.606
8939,1.581
8940,1.591
8941,1.591
8942,1.581
8943,1.555
8944,1.523
8945,1.49
8946,1.494
8947,1.526
8948,1.566
8949,1.584
8950,1.591
8951,1.62
8952,1.66
8953,1.725
8954,1.808
8955,1.863
8956,1.87
8957,1.884
8958,1.924
8959,1.946
8960,1.96
8961,1.993
8962,2.025
8963,2.047
8964,2.054
8965,2.051
8966,2.036
8967,2.0
8968,1.953
8969,1.917
8970,1.91
8971,1.899
8972,1.884
8973,1.848
8974,1.823
8975,1.798
8976,1.783
8977,1.783
8978,1.808
8979,1.834
8980,1.841
8981,1.837
8982,1.823
8983,1.819
8984,1.798
8985,1.779
8986,1.74
8987,1.696
8988,1.657
8989,1.653
8990,1.671
8991,1.7
8992,1.736
8993,1.765
8994,1.758
8995,1.779
8996,1.798
8997,1.931
8998,2.116
8999,2.141
9000,1.996
9001,1.834
9002,1.855
9003,1.924
9004,1.881
9005,1.787
9006,1.707
9007,1.751
9008,1.863
9009,1.906
9010,1.848
9011,1.765
9012,1.722
9013,1.732
9014,1.758
9015,1.754
9016,1.714
9017,1.664
9018,1.66
9019,1.714
9020,1.805
9021,1.884
9022,1.935
9023,1.953
9024,1.946
9025,1.921
9026,1.895
9027,1.859
9028,1.852
9029,1.837
9030,1.823
9031,1.808
9032,1.798
9033,1.808
9034,1.841
9035,1.892
9036,1.935
9037,1.968
9038,1.978
9039,1.964
9040,1.931
9041,1.852
9042,1.758
9043,1.704
9044,1.714
9045,1.761
9046,1.808
9047,1.83
9048,1.826
9049,1.808
9050,1.794
9051,1.779
9052,1.779
9053,1.808
9054,1.834
9055,1.823
9056,1.794
9057,1.765
9058,1.747
9059,1.74
9060,1.747
9061,1.765
9062,1.779
9063,1.816
9064,1.863
9065,1.884
9066,1.874
9067,1.845
9068,1.834
9069,1.837
9070,1.845
9071,1.841
9072,1.859
9073,1.877
9074,1.888
9075,1.888
9076,1.87
9077,1.837
9078,1.794
9079,1.769
9080,1.769
9081,1.772
9082,1.769
9083,1.761
9084,1.765
9085,1.776
9086,1.805
9087,1.834
9088,1.863
9089,1.874
9090,1.859
9091,1.848
9092,1.816
9093,1.801
9094,1.79
9095,1.801
9096,1.819
9097,1.83
9098,1.852
9099,1.877
9100,1.895
9101,1.902
9102,1.921
9103,1.928
9104,1.931
9105,1.935
9106,1.935
9107,1.91
9108,1.866
9109,1.823
9110,1.798
9111,1.79
9112,1.805
9113,1.83
9114,1.837
9115,1.819
9116,1.751
9117,1.696
9118,1.671
9119,1.66
9120,1.675
9121,1.704
9122,1.725
9123,1.725
9124,1.751
9125,1.79
9126,1.83
9127,1.845
9128,1.863
9129,1.895
9130,1.917
9131,1.913
9132,1.906
9133,1.906
9134,1.924
9135,1.949
9136,1.96
9137,1.949
9138,1.913
9139,1.881
9140,1.863
9141,1.859
9142,1.87
9143,1.866
9144,1.859
9145,1.855
9146,1.837
9147,1.79
9148,1.747
9149,1.707
9150,1.678
9151,1.667
9152,1.649
9153,1.635
9154,1.617
9155,1.646
9156,1.714
9157,1.761
9158,1.801
9159,1.819
9160,1.845
9161,1.888
9162,1.935
9163,1.996
9164,2.047
9165,2.076
9166,2.101
9167,2.138
9168,2.101
9169,2.029
9170,1.931
9171,1.798
9172,1.613
9173,1.335
9174,1.212
9175,1.378
9176,1.711
9177,1.848
9178,1.917
9179,1.917
9180,1.852
9181,2.007
9182,2.326
9183,2.268
9184,1.638
9185,1.215
9186,1.302
9187,1.479
9188,2.246
9189,2.76
9190,2.763
9191,2.47
9192,2.036
9193,1.79
9194,1.704
9195,1.57
9196,1.324
9197,1.078
9198,1.183
9199,1.28
9200,1.349
9201,1.418
9202,1.468
9203,1.519
9204,1.602
9205,1.805
9206,1.942
9207,1.957
9208,1.935
9209,1.996
9210,2.091
9211,2.177
9212,2.271
9213,2.369
9214,2.416
9215,2.409
9216,2.329
9217,2.221
9218,2.141
9219,2.065
9220,1.982
9221,1.866
9222,1.736
9223,1.635
9224,1.562
9225,1.548
9226,1.577
9227,1.602
9228,1.595
9229,1.573
9230,1.548
9231,1.508
9232,1.512
9233,1.552
9234,1.606
9235,1.649
9236,1.657
9237,1.657
9238,1.682
9239,1.729
9240,1.783
9241,1.819
9242,1.852
9243,1.87
9244,1.881
9245,1.892
9246,1.895
9247,1.921
9248,1.96
9249,1.986
9250,1.975
9251,1.964
9252,1.975
9253,1.996
9254,2.029
9255,2.054
9256,2.047
9257,2.043
9258,2.015
9259,1.96
9260,1.888
9261,1.798
9262,1.725
9263,1.667
9264,1.628
9265,1.617
9266,1.653
9267,1.729
9268,1.776
9269,1.787
9270,1.769
9271,1.765
9272,1.776
9273,1.783
9274,1.787
9275,1.779
9276,1.761
9277,1.769
9278,1.783
9279,1.772
9280,1.765
9281,1.751
9282,1.714
9283,1.646
9284,1.711
9285,2.083
9286,2.336
9287,2.188
9288,2.018
9289,2.043
9290,2.116
9291,2.054
9292,1.845
9293,1.657
9294,1.617
9295,1.689
9296,1.711
9297,1.649
9298,1.584
9299,1.588
9300,1.628
9301,1.671
9302,1.7
9303,1.729
9304,1.776
9305,1.848
9306,1.921
9307,1.975
9308,1.996
9309,1.986
9310,1.975
9311,1.968
9312,1.978
9313,1.964
9314,1.924
9315,1.888
9316,1.881
9317,1.87
9318,1.852
9319,1.823
9320,1.808
9321,1.816
9322,1.83
9323,1.816
9324,1.776
9325,1.725
9326,1.696
9327,1.689
9328,1.689
9329,1.704
9330,1.696
9331,1.711
9332,1.74
9333,1.787
9334,1.823
9335,1.837
9336,1.855
9337,1.852
9338,1.852
9339,1.855
9340,1.874
9341,1.881
9342,1.888
9343,1.884
9344,1.881
9345,1.881
9346,1.87
9347,1.863
9348,1.859
9349,1.852
9350,1.845
9351,1.834
9352,1.794
9353,1.761
9354,1.747
9355,1.765
9356,1.779
9357,1.794
9358,1.808
9359,1.812
9360,1.805
9361,1.816
9362,1.812
9363,1.805
9364,1.823
9365,1.834
9366,1.845
9367,1.855
9368,1.855
9369,1.884
9370,1.91
9371,1.906
9372,1.888
9373,1.866
9374,1.855
9375,1.859
9376,1.884
9377,1.913
9378,1.928
9379,1.924
9380,1.917
9381,1.902
9382,1.881
9383,1.826
9384,1.765
9385,1.722
9386,1.685
9387,1.678
9388,1.689
9389,1.707
9390,1.732
9391,1.74
9392,1.725
9393,1.722
9394,1.74
9395,1.783
9396,1.819
9397,1.816
9398,1.826
9399,1.845
9400,1.863
9401,1.859
9402,1.859
9403,1.837
9404,1.834
9405,1.848
9406,1.863
9407,1.874
9408,1.895
9409,1.917
9410,1.928
9411,1.895
9412,1.87
9413,1.855
9414,1.859
9415,1.895
9416,1.917
9417,1.895
9418,1.852
9419,1.852
9420,1.848
9421,1.812
9422,1.747
9423,1.693
9424,1.711
9425,1.747
9426,1.776
9427,1.779
9428,1.794
9429,1.798
9430,1.798
9431,1.794
9432,1.812
9433,1.816
9434,1.783
9435,1.765
9436,1.776
9437,1.798
9438,1.805
9439,1.808
9440,1.841
9441,1.866
9442,1.884
9443,1.924
9444,1.899
9445,2.011
9446,2.007
9447,1.949
9448,1.913
9449,1.859
9450,1.83
9451,1.819
9452,1.826
9453,1.808
9454,1.787
9455,1.779
9456,1.794
9457,1.79
9458,1.7
9459,1.602
9460,1.541
9461,1.526
9462,1.552
9463,1.581
9464,1.447
9465,1.468
9466,1.519
9467,1.559
9468,1.617
9469,2.004
9470,2.608
9471,2.76
9472,2.76
9473,2.763
9474,2.087
9475,1.465
9476,1.157
9477,1.505
9478,2.091
9479,2.373
9480,2.344
9481,2.206
9482,2.029
9483,1.902
9484,1.863
9485,1.754
9486,1.566
9487,1.403
9488,1.237
9489,1.085
9490,1.19
9491,1.284
9492,1.364
9493,1.418
9494,1.472
9495,1.519
9496,1.562
9497,1.591
9498,1.79
9499,2.022
9500,2.177
9501,2.293
9502,2.402
9503,2.478
9504,2.521
9505,2.539
9506,2.55
9507,2.535
9508,2.47
9509,2.369
9510,2.232
9511,2.036
9512,1.841
9513,1.675
9514,1.541
9515,1.396
9516,1.28
9517,1.197
9518,1.179
9519,1.197
9520,1.233
9521,1.284
9522,1.367
9523,1.454
9524,1.534
9525,1.599
9526,1.664
9527,1.707
9528,1.743
9529,1.787
9530,1.83
9531,1.863
9532,1.906
9533,1.953
9534,1.989
9535,2.018
9536,2.033
9537,2.04
9538,2.051
9539,2.069
9540,2.047
9541,2.018
9542,1.989
9543,1.971
9544,1.957
9545,1.964
9546,1.968
9547,1.978
9548,1.975
9549,1.96
9550,1.917
9551,1.852
9552,1.772
9553,1.689
9554,1.638
9555,1.62
9556,1.628
9557,1.628
9558,1.638
9559,1.653
9560,1.664
9561,1.7
9562,1.743
9563,1.787
9564,1.845
9565,1.874
9566,1.881
9567,1.87
9568,1.845
9569,1.823
9570,1.805
9571,1.805
9572,1.808
9573,1.794
9574,1.743
9575,1.66
9576,1.609
9577,1.704
9578,1.993
9579,2.203
9580,2.181
9581,2.127
9582,2.156
9583,2.13
9584,1.968
9585,1.812
9586,1.747
9587,1.761
9588,1.787
9589,1.823
9590,1.848
9591,1.859
9592,1.855
9593,1.826
9594,1.769
9595,1.696
9596,1.62
9597,1.581
9598,1.57
9599,1.581
9600,1.609
9601,1.678
9602,1.765
9603,1.837
9604,1.877
9605,1.884
9606,1.877
9607,1.877
9608,1.895
9609,1.913
9610,1.924
9611,1.924
9612,1.917
9613,1.888
9614,1.87
9615,1.888
9616,1.917
9617,1.913
9618,1.884
9619,1.837
9620,1.794
9621,1.758
9622,1.722
9623,1.704
9624,1.7
9625,1.714
9626,1.751
9627,1.805
9628,1.845
9629,1.866
9630,1.863
9631,1.848
9632,1.837
9633,1.816
9634,1.805
9635,1.798
9636,1.79
9637,1.79
9638,1.823
9639,1.859
9640,1.888
9641,1.895
9642,1.892
9643,1.884
9644,1.874
9645,1.87
9646,1.866
9647,1.863
9648,1.859
9649,1.87
9650,1.877
9651,1.863
9652,1.845
9653,1.848
9654,1.845
9655,1.845
9656,1.866
9657,1.87
9658,1.848
9659,1.794
9660,1.751
9661,1.729
9662,1.725
9663,1.743
9664,1.79
9665,1.812
9666,1.83
9667,1.816
9668,1.798
9669,1.79
9670,1.783
9671,1.776
9672,1.772
9673,1.758
9674,1.765
9675,1.79
9676,1.794
9677,1.805
9678,1.819
9679,1.848
9680,1.877
9681,1.892
9682,1.892
9683,1.888
9684,1.881
9685,1.884
9686,1.895
9687,1.881
9688,1.87
9689,1.855
9690,1.852
9691,1.841
9692,1.83
9693,1.83
9694,1.826
9695,1.823
9696,1.812
9697,1.819
9698,1.816
9699,1.816
9700,1.819
9701,1.834
9702,1.826
9703,1.819
9704,1.816
9705,1.834
9706,1.866
9707,1.888
9708,1.884
9709,1.845
9710,1.808
9711,1.79
9712,1.772
9713,1.761
9714,1.747
9715,1.74
9716,1.751
9717,1.769
9718,1.812
9719,1.834
9720,1.845
9721,1.841
9722,1.834
9723,1.819
9724,1.801
9725,1.794
9726,1.798
9727,1.801
9728,1.812
9729,1.834
9730,1.845
9731,1.855
9732,1.874
9733,1.895
9734,1.91
9735,1.921
9736,1.921
9737,1.921
9738,1.906
9739,1.892
9740,1.892
9741,1.866
9742,1.834
9743,1.805
9744,1.779
9745,1.747
9746,1.74
9747,1.761
9748,1.798
9749,1.819
9750,1.812
9751,1.79
9752,1.758
9753,1.675
9754,1.439
9755,1.335
9756,1.407
9757,1.461
9758,1.512
9759,1.761
9760,2.456
9761,2.763
9762,2.763
9763,2.412
9764,2.062
9765,2.025
9766,2.022
9767,1.588
9768,1.052
9769,1.168
9770,1.439
9771,2.358
9772,2.72
9773,2.499
9774,2.141
9775,1.931
9776,1.888
9777,1.888
9778,1.751
9779,1.461
9780,1.226
9781,1.107
9782,1.19
9783,1.284
9784,1.353
9785,1.418
9786,1.472
9787,1.519
9788,1.559
9789,1.671
9790,1.859
9791,1.968
9792,2.069
9793,2.166
9794,2.25
9795,2.308
9796,2.355
9797,2.402
9798,2.459
9799,2.485
9800,2.474
9801,2.416
9802,2.297
9803,2.119
9804,1.928
9805,1.765
9806,1.599
9807,1.497
9808,1.425
9809,1.364
9810,1.327
9811,1.327
9812,1.364
9813,1.429
9814,1.501
9815,1.544
9816,1.555
9817,1.552
9818,1.562
9819,1.602
9820,1.646
9821,1.685
9822,1.732
9823,1.783
9824,1.841
9825,1.895
9826,1.96
9827,2.015
9828,2.087
9829,2.141
9830,2.145
9831,2.101
9832,2.029
9833,1.971
9834,1.935
9835,1.899
9836,1.877
9837,1.877
9838,1.863
9839,1.852
9840,1.83
9841,1.816
9842,1.812
9843,1.805
9844,1.801
9845,1.805
9846,1.808
9847,1.805
9848,1.798
9849,1.758
9850,1.743
9851,1.747
9852,1.772
9853,1.805
9854,1.823
9855,1.826
9856,1.83
9857,1.852
9858,1.855
9859,1.863
9860,1.83
9861,1.801
9862,1.761
9863,1.718
9864,1.66
9865,1.609
9866,1.577
9867,1.628
9868,1.892
9869,2.148
9870,2.094
9871,2.029
9872,2.148
9873,2.235
9874,2.166
9875,2.007
9876,1.837
9877,1.725
9878,1.693
9879,1.675
9880,1.642
9881,1.591
9882,1.541
9883,1.508
9884,1.505
9885,1.544
9886,1.617
9887,1.714
9888,1.808
9889,1.888
9890,1.939
9891,1.978
9892,1.993
9893,2.011
9894,2.011
9895,2.015
9896,2.011
9897,1.989
9898,1.964
9899,1.949
9900,1.924
9901,1.881
9902,1.845
9903,1.812
9904,1.794
9905,1.783
9906,1.776
9907,1.779
9908,1.783
9909,1.783
9910,1.758
9911,1.729
9912,1.707
9913,1.704
9914,1.722
9915,1.743
9916,1.761
9917,1.772
9918,1.798
9919,1.83
9920,1.866
9921,1.87
9922,1.845
9923,1.83
9924,1.826
9925,1.819
9926,1.83
9927,1.855
9928,1.881
9929,1.895
9930,1.881
9931,1.852
9932,1.83
9933,1.834
9934,1.866
9935,1.884
9936,1.87
9937,1.855
9938,1.834
9939,1.819
9940,1.812
9941,1.819
9942,1.834
9943,1.855
9944,1.855
9945,1.848
9946,1.819
9947,1.794
9948,1.794
9949,1.794
9950,1.798
9951,1.794
9952,1.783
9953,1.761
9954,1.747
9955,1.743
9956,1.758
9957,1.772
9958,1.779
9959,1.783
9960,1.801
9961,1.83
9962,1.877
9963,1.924
9964,1.953
9965,1.957
9966,1.931
9967,1.902
9968,1.859
9969,1.83
9970,1.805
9971,1.776
9972,1.772
9973,1.787
9974,1.805
9975,1.826
9976,1.848
9977,1.859
9978,1.848
9979,1.819
9980,1.808
9981,1.808
9982,1.805
9983,1.805
9984,1.798
9985,1.787
9986,1.772
9987,1.758
9988,1.761
9989,1.776
9990,1.805
9991,1.845
9992,1.877
9993,1.899
9994,1.906
9995,1.902
9996,1.895
9997,1.888
9998,1.877
9999,1.877
10000,1.866
10001,1.855
10002,1.859
10003,1.848
10004,1.834
10005,1.812
10006,1.79
10007,1.769
10008,1.758
10009,1.761
10010,1.779
10011,1.801
10012,1.837
10013,1.852
10014,1.841
10015,1.834
10016,1.826
10017,1.801
10018,1.776
10019,1.758
10020,1.765
10021,1.79
10022,1.787
10023,1.787
10024,1.798
10025,1.805
10026,1.83
10027,1.874
10028,1.91
10029,1.921
10030,1.902
10031,1.874
10032,1.859
10033,1.845
10034,1.826
10035,1.819
10036,1.816
10037,1.848
10038,1.924
10039,1.982
10040,1.978
10041,1.946
10042,1.899
10043,1.761
10044,1.425
10045,1.237
10046,1.32
10047,1.389
10048,1.45
10049,1.798
10050,2.304
10051,2.543
10052,2.496
10053,2.203
10054,1.812
10055,1.566
10056,1.671
10057,2.004
10058,1.939
10059,1.577
10060,1.414
10061,1.667
10062,2.192
10063,2.564
10064,2.622
10065,2.488
10066,2.304
10067,2.022
10068,1.613
10069,1.259
10070,1.1
10071,1.092
10072,1.194
10073,1.28
10074,1.36
10075,1.425
10076,1.479
10077,1.599
10078,1.722
10079,1.841
10080,1.942
10081,2.007
10082,2.033
10083,2.043
10084,2.04
10085,2.0
10086,1.996
10087,2.054
10088,2.134
10089,2.199
10090,2.228
10091,2.21
10092,2.163
10093,2.109
10094,2.036
10095,1.946
10096,1.859
10097,1.779
10098,1.722
10099,1.671
10100,1.638
10101,1.606
10102,1.591
10103,1.591
10104,1.595
10105,1.609
10106,1.642
10107,1.682
10108,1.682
10109,1.657
10110,1.642
10111,1.696
10112,1.776
10113,1.841
10114,1.866
10115,1.866
10116,1.859
10117,1.848
10118,1.855
10119,1.848
10120,1.855
10121,1.852
10122,1.83
10123,1.819
10124,1.83
10125,1.845
10126,1.884
10127,1.928
10128,1.964
10129,1.986
10130,1.986
10131,1.957
10132,1.921
10133,1.884
10134,1.841
10135,1.794
10136,1.772
10137,1.769
10138,1.787
10139,1.812
10140,1.859
10141,1.884
10142,1.892
10143,1.881
10144,1.874
10145,1.845
10146,1.808
10147,1.772
10148,1.758
10149,1.758
10150,1.758
10151,1.743
10152,1.714
10153,1.657
10154,1.591
10155,1.606
10156,1.79
10157,2.029
10158,1.993
10159,1.852
10160,1.834
10161,1.892
10162,1.953
10163,1.964
10164,1.928
10165,1.855
10166,1.794
10167,1.761
10168,1.74
10169,1.736
10170,1.769
10171,1.779
10172,1.79
10173,1.798
10174,1.801
10175,1.826
10176,1.859
10177,1.884
10178,1.906
10179,1.928
10180,1.942
10181,1.931
10182,1.899
10183,1.874
10184,1.855
10185,1.852
10186,1.859
10187,1.855
10188,1.852
10189,1.841
10190,1.823
10191,1.808
10192,1.783
10193,1.751
10194,1.722
10195,1.689
10196,1.671
10197,1.667
10198,1.689
10199,1.732
10200,1.783
10201,1.801
10202,1.808
10203,1.819
10204,1.823
10205,1.837
10206,1.845
10207,1.866
10208,1.888
10209,1.899
10210,1.902
10211,1.892
10212,1.87
10213,1.848
10214,1.834
10215,1.819
10216,1.812
10217,1.808
10218,1.826
10219,1.852
10220,1.892
10221,1.917
10222,1.921
10223,1.91
10224,1.899
10225,1.902
10226,1.91
10227,1.895
10228,1.863
10229,1.848
10230,1.841
10231,1.83
10232,1.808
10233,1.787
10234,1.776
10235,1.779
10236,1.787
10237,1.794
10238,1.761
10239,1.743
10240,1.747
10241,1.772
10242,1.779
10243,1.772
10244,1.743
10245,1.725
10246,1.729
10247,1.74
10248,1.772
10249,1.816
10250,1.87
10251,1.931
10252,1.957
10253,1.946
10254,1.895
10255,1.823
10256,1.761
10257,1.74
10258,1.754
10259,1.801
10260,1.837
10261,1.859
10262,1.848
10263,1.841
10264,1.837
10265,1.848
10266,1.881
10267,1.892
10268,1.874
10269,1.834
10270,1.805
10271,1.787
10272,1.801
10273,1.798
10274,1.794
10275,1.772
10276,1.769
10277,1.801
10278,1.837
10279,1.852
10280,1.852
10281,1.837
10282,1.819
10283,1.834
10284,1.87
10285,1.921
10286,1.964
10287,1.971
10288,1.953
10289,1.931
10290,1.906
10291,1.884
10292,1.834
10293,1.776
10294,1.725
10295,1.725
10296,1.747
10297,1.761
10298,1.772
10299,1.769
10300,1.783
10301,1.812
10302,1.837
10303,1.826
10304,1.812
10305,1.783
10306,1.765
10307,1.754
10308,1.754
10309,1.769
10310,1.794
10311,1.812
10312,1.812
10313,1.805
10314,1.816
10315,1.834
10316,1.819
10317,1.805
10318,1.798
10319,1.816
10320,1.859
10321,1.892
10322,1.899
10323,1.888
10324,1.881
10325,1.852
10326,1.83
10327,1.826
10328,1.845
10329,1.877
10330,1.902
10331,1.881
10332,1.841
10333,1.779
10334,1.62
10335,1.309
10336,1.349
10337,1.421
10338,1.808
10339,2.192
10340,2.441
10341,2.47
10342,2.362
10343,2.365
10344,2.188
10345,1.544
10346,1.089
10347,1.19
10348,1.458
10349,2.091
10350,2.47
10351,2.506
10352,2.387
10353,2.224
10354,2.101
10355,1.96
10356,1.696
10357,1.327
10358,1.052
10359,1.118
10360,1.219
10361,1.302
10362,1.378
10363,1.501
10364,1.653
10365,1.761
10366,1.848
10367,1.906
10368,1.913
10369,1.91
10370,1.931
10371,1.989
10372,2.025
10373,2.022
10374,2.0
10375,1.996
10376,2.051
10377,2.119
10378,2.177
10379,2.177
10380,2.156
10381,2.116
10382,2.033
10383,1.928
10384,1.816
10385,1.732
10386,1.696
10387,1.678
10388,1.664
10389,1.66
10390,1.646
10391,1.664
10392,1.707
10393,1.729
10394,1.736
10395,1.725
10396,1.718
10397,1.718
10398,1.704
10399,1.685
10400,1.678
10401,1.678
10402,1.711
10403,1.754
10404,1.779
10405,1.772
10406,1.765
10407,1.787
10408,1.834
10409,1.888
10410,1.928
10411,1.942
10412,1.942
10413,1.921
10414,1.906
10415,1.884
10416,1.874
10417,1.884
10418,1.921
10419,1.942
10420,1.935
10421,1.91
10422,1.899
10423,1.895
10424,1.888
10425,1.877
10426,1.863
10427,1.841
10428,1.816
10429,1.798
10430,1.787
10431,1.79
10432,1.798
10433,1.772
10434,1.754
10435,1.743
10436,1.747
10437,1.758
10438,1.769
10439,1.769
10440,1.772
10441,1.779
10442,1.779
10443,1.819
10444,1.863
10445,1.899
10446,1.982
10447,2.138
10448,2.145
10449,1.978
10450,1.808
10451,1.718
10452,1.707
10453,1.707
10454,1.646
10455,1.566
10456,1.584
10457,1.707
10458,1.823
10459,1.852
10460,1.812
10461,1.769
10462,1.769
10463,1.787
10464,1.834
10465,1.845
10466,1.87
10467,1.895
10468,1.921
10469,1.939
10470,1.946
10471,1.935
10472,1.924
10473,1.91
10474,1.888
10475,1.877
10476,1.87
10477,1.874
10478,1.874
10479,1.852
10480,1.812
10481,1.779
10482,1.765
10483,1.772
10484,1.783
10485,1.805
10486,1.823
10487,1.837
10488,1.83
10489,1.805
10490,1.779
10491,1.769
10492,1.772
10493,1.779
10494,1.779
10495,1.776
10496,1.783
10497,1.798
10498,1.794
10499,1.808
10500,1.808
10501,1.801
10502,1.812
10503,1.837
10504,1.866
10505,1.87
10506,1.852
10507,1.823
10508,1.808
10509,1.801
10510,1.816
10511,1.837
10512,1.866
10513,1.888
10514,1.899
10515,1.899
10516,1.892
10517,1.874
10518,1.848
10519,1.841
10520,1.841
10521,1.834
10522,1.805
10523,1.79
10524,1.794
10525,1.819
10526,1.837
10527,1.823
10528,1.801
10529,1.798
10530,1.769
10531,1.758
10532,1.751
10533,1.747
10534,1.747
10535,1.74
10536,1.747
10537,1.769
10538,1.805
10539,1.845
10540,1.874
10541,1.855
10542,1.841
10543,1.859
10544,1.895
10545,1.917
10546,1.931
10547,1.931
10548,1.91
10549,1.877
10550,1.855
10551,1.855
10552,1.834
10553,1.837
10554,1.852
10555,1.87
10556,1.874
10557,1.863
10558,1.841
10559,1.808
10560,1.776
10561,1.758
10562,1.772
10563,1.787
10564,1.826
10565,1.855
10566,1.837
10567,1.812
10568,1.787
10569,1.79
10570,1.794
10571,1.787
10572,1.776
10573,1.787
10574,1.779
10575,1.779
10576,1.787
10577,1.798
10578,1.801
10579,1.798
10580,1.776
10581,1.772
10582,1.776
10583,1.808
10584,1.877
10585,1.986
10586,2.043
10587,2.047
10588,2.004
10589,1.971
10590,1.906
10591,1.845
10592,1.798
10593,1.769
10594,1.765
10595,1.779
10596,1.808
10597,1.812
10598,1.758
10599,1.693
10600,1.657
10601,1.678
10602,1.74
10603,1.83
10604,1.892
10605,1.913
10606,1.855
10607,1.798
10608,1.765
10609,1.776
10610,1.779
10611,1.765
10612,1.769
10613,1.783
10614,1.837
10615,1.902
10616,1.96
10617,2.018
10618,2.051
10619,2.087
10620,2.098
10621,2.029
10622,1.863
10623,1.57
10624,1.212
10625,1.251
10626,1.335
10627,1.555
10628,1.79
10629,1.913
10630,2.043
10631,2.105
10632,2.192
10633,2.42
10634,2.445
10635,1.978
10636,1.342
10637,1.194
10638,1.508
10639,2.235
10640,2.756
10641,2.763
10642,2.55
10643,2.116
10644,1.787
10645,1.534
10646,1.356
10647,1.175
10648,1.067
10649,1.168
10650,1.259
10651,1.338
10652,1.403
10653,1.465
10654,1.508
10655,1.552
10656,1.725
10657,1.895
10658,1.971
10659,1.993
10660,2.004
10661,2.04
10662,2.098
10663,2.145
10664,2.206
10665,2.293
10666,2.365
10667,2.405
10668,2.38
10669,2.279
10670,2.152
10671,2.0
10672,1.881
10673,1.787
10674,1.711
10675,1.657
10676,1.628
10677,1.599
10678,1.591
10679,1.599
10680,1.606
10681,1.638
10682,1.675
10683,1.682
10684,1.653
10685,1.628
10686,1.628
10687,1.678
10688,1.693
10689,1.675
10690,1.675
10691,1.678
10692,1.664
10693,1.646
10694,1.675
10695,1.74
10696,1.805
10697,1.874
10698,1.931
10699,1.96
10700,1.779
10701,1.942
10702,1.939
10703,1.848
10704,1.776
10705,1.711
10706,1.642
10707,1.624
10708,1.613
10709,1.685
10710,1.917
10711,2.293
10712,2.297
10713,2.047
10714,1.996
10715,2.069
10716,2.058
10717,1.939
10718,1.845
10719,1.834
10720,1.895
10721,1.939
10722,1.906
10723,1.819
10724,1.729
10725,1.649
10726,1.588
10727,1.559
10728,1.559
10729,1.57
10730,1.624
10731,1.671
10732,1.722
10733,1.776
10734,1.787
10735,1.805
10736,1.83
10737,1.852
10738,1.855
10739,1.881
10740,1.902
10741,1.928
10742,1.931
10743,1.935
10744,1.935
10745,1.906
10746,1.884
10747,1.874
10748,1.892
10749,1.91
10750,1.906
10751,1.884
10752,1.874
10753,1.855
10754,1.83
10755,1.801
10756,1.779
10757,1.772
10758,1.776
10759,1.761
10760,1.732
10761,1.714
10762,1.725
10763,1.765
10764,1.787
10765,1.819
10766,1.826
10767,1.826
10768,1.83
10769,1.823
10770,1.823
10771,1.852
10772,1.899
10773,1.946
10774,1.975
10775,1.96
10776,1.928
10777,1.859
10778,1.798
10779,1.751
10780,1.722
10781,1.704
10782,1.685
10783,1.693
10784,1.729
10785,1.751
10786,1.783
10787,1.805
10788,1.834
10789,1.888
10790,1.91
10791,1.892
10792,1.852
10793,1.826
10794,1.841
10795,1.881
10796,1.899
10797,1.899
10798,1.888
10799,1.877
10800,1.863
10801,1.826
10802,1.798
10803,1.801
10804,1.808
10805,1.819
10806,1.812
10807,1.808
10808,1.823
10809,1.855
10810,1.892
10811,1.888
10812,1.87
10813,1.83
10814,1.79
10815,1.751
10816,1.722
10817,1.722
10818,1.772
10819,1.837
10820,1.87
10821,1.877
10822,1.855
10823,1.816
10824,1.783
10825,1.765
10826,1.736
10827,1.718
10828,1.772
10829,1.837
10830,1.884
10831,1.902
10832,1.892
10833,1.866
10834,1.841
10835,1.83
10836,1.823
10837,1.816
10838,1.848
10839,1.863
10840,1.859
10841,1.841
10842,1.812
10843,1.823
10844,1.848
10845,1.848
10846,1.855
10847,1.874
10848,1.877
10849,1.877
10850,1.83
10851,1.776
10852,1.758
10853,1.769
10854,1.783
10855,1.787
10856,1.826
10857,1.83
10858,1.834
10859,1.855
10860,1.881
10861,1.863
10862,1.845
10863,1.805
10864,1.783
10865,1.83
10866,1.895
10867,1.939
10868,1.924
10869,1.899
10870,1.881
10871,1.841
10872,1.801
10873,1.779
10874,1.772
10875,1.776
10876,1.816
10877,1.866
10878,1.917
10879,1.935
10880,1.917
10881,1.834
10882,1.722
10883,1.62
10884,1.562
10885,1.523
10886,1.483
10887,1.356
10888,1.418
10889,1.476
10890,1.519
10891,1.562
10892,1.606
10893,2.224
10894,2.763
10895,2.76
10896,2.763
10897,2.271
10898,1.454
10899,1.092
10900,1.389
10901,2.091
10902,2.648
10903,2.76
10904,2.655
10905,2.271
10906,2.062
10907,1.971
10908,1.783
10909,1.523
10910,1.309
10911,1.096
10912,0.9693
10913,1.089
10914,1.201
10915,1.28
10916,1.356
10917,1.421
10918,1.472
10919,1.519
10920,1.559
10921,1.595
10922,1.761
10923,2.015
10924,2.199
10925,2.351
10926,2.452
10927,2.528
10928,2.568
10929,2.579
10930,2.553
10931,2.488
10932,2.376
10933,2.217
10934,2.043
10935,1.892
10936,1.787
10937,1.693
10938,1.573
10939,1.432
10940,1.313
10941,1.244
10942,1.233
10943,1.28
10944,1.338
10945,1.407
10946,1.479
10947,1.526
10948,1.562
10949,1.617
10950,1.667
10951,1.718
10952,1.769
10953,1.819
10954,1.866
10955,1.892
10956,1.913
10957,1.939
10958,1.971
10959,2.004
10960,2.022
10961,2.011
10962,2.015
10963,2.047
10964,2.051
10965,2.033
10966,1.989
10967,1.953
10968,1.921
10969,1.884
10970,1.834
10971,1.79
10972,1.765
10973,1.736
10974,1.707
10975,1.704
10976,1.704
10977,1.689
10978,1.693
10979,1.704
10980,1.722
10981,1.758
10982,1.783
10983,1.794
10984,1.801
10985,1.823
10986,1.863
10987,1.906
10988,1.928
10989,1.924
10990,1.906
10991,1.888
10992,1.888
10993,1.888
10994,1.881
10995,1.874
10996,1.848
10997,1.747
10998,1.599
10999,1.555
11000,1.62
11001,1.921
11002,2.123
11003,2.105
11004,2.087
11005,2.109
11006,2.058
11007,1.953
11008,1.801
11009,1.617
11010,1.541
11011,1.638
11012,1.682
11013,1.631
11014,1.671
11015,1.79
