0.000
2.416
2.326
2.264
2.232
2.210
2.192
2.170
2.145
2.112
2.076
2.033
1.986
1.939
1.892
1.848
1.808
1.779
1.754
1.736
1.722
1.718
1.718
1.722
1.722
1.725
1.729
1.732
1.736
1.740
1.740
1.743
1.743
1.743
1.747
1.747
1.751
1.751
1.754
1.754
1.754
1.754
1.754
1.754
1.751
1.747
1.747
1.747
1.751
1.754
1.758
1.765
1.769
1.779
1.783
1.787
1.794
1.798
1.801
1.801
1.805
1.808
1.808
1.812
1.812
1.812
1.816
1.823
1.826
1.834
1.837
1.841
1.845
1.852
1.855
1.863
1.863
1.866
1.874
1.881
1.888
1.892
1.902
1.910
1.917
1.928
1.939
1.946
1.953
1.964
1.971
1.978
1.986
1.996
2.007
2.015
2.025
2.036
2.043
2.047
2.054
2.062
2.065
2.072
2.080
2.087
2.094
2.098
2.105
2.109
2.112
2.116
2.116
2.116
2.112
2.105
2.098
2.087
2.072
2.058
2.036
2.018
2.000
1.986
1.968
1.946
1.924
1.906
1.884
1.874
1.859
1.848
1.837
1.826
1.812
1.798
1.783
1.769
1.751
1.732
1.718
1.696
1.682
1.667
1.653
1.646
1.642
1.638
1.638
1.642
1.642
1.646
1.642
1.638
1.635
1.631
1.631
1.628
1.631
1.635
1.638
1.638
1.642
1.642
1.642
1.642
1.646
1.653
1.657
1.660
1.660
1.660
1.660
1.660
1.660
1.664
1.671
1.675
1.678
1.675
1.671
1.671
1.667
1.671
1.671
1.678
1.682
1.682
1.682
1.682
1.682
1.685
1.693
1.696
1.707
1.707
1.711
1.711
1.711
1.711
1.707
1.707
1.707
1.704
1.704
1.707
1.707
1.711
1.722
1.729
1.740
1.751
1.761
1.779
1.801
1.819
1.841
1.859
1.870
1.870
1.855
1.830
1.801
1.776
1.751
1.740
1.732
1.725
1.718
1.711
1.707
1.707
1.711
1.714
1.718
1.722
1.725
1.736
1.743
1.751
1.761
1.769
1.772
1.779
1.783
1.790
1.790
1.783
1.779
1.769
1.769
1.769
1.772
1.772
1.769
1.765
1.769
1.776
1.779
1.783
1.783
1.787
1.790
1.794
1.801
1.805
1.812
1.816
1.823
1.819
1.819
1.812
1.812
1.812
1.812
1.819
1.823
1.823
1.826
1.826
1.830
1.830
1.830
1.830
1.834
1.837
1.845
1.855
1.870
1.881
1.892
1.899
1.899
1.895
1.899
1.902
1.902
1.902
1.902
1.899
1.899
1.899
1.899
1.892
1.888
1.892
1.892
1.888
1.884
1.877
1.874
1.866
1.859
1.855
1.848
1.845
1.841
1.837
1.837
1.834
1.834
1.834
1.834
1.837
1.845
1.845
1.848
1.852
1.852
1.852
1.852
1.855
1.859
1.863
1.866
1.870
1.866
1.866
1.863
1.863
1.866
1.870
1.870
1.874
1.874
1.877
1.877
1.877
1.877
1.877
1.877
1.877
1.874
1.874
1.874
1.866
1.859
1.848
1.830
1.808
1.776
1.740
1.700
1.664
1.646
1.660
1.722
1.845
2.033
2.271
2.535
2.803
3.045
3.215
3.302
3.335
3.349
3.360
3.374
3.353
3.291
3.190
3.060
2.901
2.734
2.572
2.427
2.318
2.239
2.192
2.148
2.123
2.094
2.062
2.025
1.986
1.949
1.910
1.877
1.848
1.826
1.808
1.794
1.787
1.783
1.779
1.779
1.779
1.776
1.776
1.776
1.772
1.769
1.769
1.769
1.769
1.769
1.769
1.772
1.776
1.776
1.779
1.783
1.787
1.790
1.794
1.798
1.798
1.798
1.798
1.798
1.801
1.801
1.801
1.801
1.808
1.812
1.819
1.826
1.830
1.837
1.837
1.837
1.841
1.837
1.841
1.845
1.852
1.859
1.866
1.874
1.881
1.881
1.881
1.881
1.881
1.881
1.881
1.884
1.888
1.892
1.895
1.902
1.906
1.917
1.928
1.931
1.939
1.946
1.953
1.964
1.975
1.982
1.989
2.000
2.007
2.011
2.018
2.025
2.033
2.040
2.051
2.062
2.069
2.076
2.087
2.094
2.098
2.101
2.109
2.112
2.119
2.123
2.130
2.134
2.138
2.141
2.145
2.141
2.138
2.134
2.130
2.127
2.116
2.109
2.098
2.087
2.069
2.054
2.033
2.011
1.989
1.968
1.949
1.931
1.913
1.895
1.877
1.863
1.845
1.826
1.808
1.794
1.779
1.765
1.754
1.743
1.732
1.725
1.718
1.711
1.704
1.696
1.689
1.685
1.685
1.685
1.685
1.682
1.682
1.685
1.682
1.678
1.678
1.678
1.678
1.675
1.675
1.671
1.671
1.671
1.675
1.675
1.675
1.678
1.678
1.682
1.689
1.693
1.696
1.700
1.700
1.704
1.700
1.700
1.700
1.700
1.704
1.704
1.704
1.707
1.711
1.714
1.714
1.714
1.718
1.718
1.722
1.722
1.725
1.729
1.736
1.740
1.743
1.740
1.740
1.736
1.736
1.736
1.736
1.736
1.740
1.740
1.743
1.747
1.747
1.751
1.751
1.754
1.754
1.758
1.758
1.761
1.765
1.765
1.769
1.765
1.769
1.769
1.772
1.776
1.776
1.776
1.779
1.779
1.779
1.783
1.779
1.779
1.779
1.776
1.776
1.776
1.779
1.783
1.783
1.787
1.790
1.790
1.790
1.790
1.790
1.790
1.794
1.798
1.801
1.805
1.805
1.805
1.801
1.801
1.798
1.798
1.801
1.805
1.805
1.808
1.808
1.812
1.808
1.812
1.812
1.808
1.805
1.805
1.805
1.805
1.805
1.801
1.805
1.801
1.801
1.801
1.801
1.801
1.801
1.805
1.805
1.812
1.816
1.823
1.826
1.830
1.830
1.834
1.834
1.834
1.830
1.834
1.834
1.834
1.837
1.837
1.837
1.834
1.834
1.834
1.834
1.834
1.837
1.841
1.848
1.852
1.848
1.845
1.841
1.837
1.830
1.826
1.826
1.830
1.837
1.852
1.866
1.877
1.892
1.899
1.906
1.910
1.917
1.921
1.928
1.928
1.931
1.924
1.921
1.913
1.906
1.902
1.902
1.902
1.902
1.902
1.910
1.913
1.913
1.917
1.917
1.913
1.910
1.902
1.895
1.888
1.884
1.881
1.881
1.877
1.877
1.881
1.881
1.884
1.888
1.892
1.892
1.892
1.892
1.888
1.884
1.884
1.881
1.877
1.881
1.877
1.877
1.877
1.881
1.888
1.892
1.892
1.895
1.899
1.902
1.906
1.910
1.910
1.913
1.917
1.921
1.921
1.921
1.917
1.913
1.910
1.902
1.888
1.870
1.845
1.816
1.779
1.736
1.700
1.675
1.682
1.729
1.837
2.025
2.264
2.532
2.799
3.053
3.233
3.342
3.382
3.396
3.414
3.432
3.429
3.378
3.284
3.154
2.998
2.825
2.662
2.525
2.420
2.347
2.297
2.253
2.217
2.181
2.148
2.112
2.072
2.040
2.004
1.971
1.939
1.913
1.892
1.877
1.866
1.863
1.852
1.848
1.841
1.837
1.837
1.834
1.834
1.834
1.834
1.834
1.834
1.830
1.826
1.826
1.823
1.823
1.823
1.823
1.823
1.826
1.826
1.830
1.830
1.834
1.834
1.837
1.841
1.845
1.845
1.848
1.848
1.852
1.859
1.866
1.870
1.874
1.877
1.877
1.881
1.881
1.884
1.888
1.895
1.899
1.902
1.906
1.910
1.913
1.913
1.917
1.921
1.928
1.931
1.939
1.942
1.949
1.957
1.964
1.975
1.986
2.000
2.015
2.029
2.040
2.054
2.058
2.065
2.069
2.072
2.076
2.076
2.080
2.087
2.098
2.109
2.119
2.123
2.130
2.134
2.138
2.145
2.152
2.156
2.166
2.174
2.181
2.188
2.192
2.199
2.203
2.203
2.206
2.206
2.206
2.210
2.210
2.210
2.203
2.192
2.185
2.174
2.163
2.152
2.138
2.119
2.101
2.083
2.062
2.036
2.011
1.989
1.968
1.949
1.928
1.910
1.892
1.870
1.848
1.834
1.812
1.798
1.787
1.776
1.769
1.758
1.751
1.743
1.736
1.729
1.729
1.722
1.718
1.714
1.707
1.704
1.704
1.704
1.704
1.704
1.704
1.704
1.700
1.700
1.696
1.696
1.700
1.700
1.700
1.700
1.700
1.704
1.707
1.707
1.711
1.714
1.714
1.714
1.718
1.722
1.722
1.725
1.729
1.725
1.725
1.725
1.729
1.729
1.732
1.736
1.740
1.743
1.743
1.747
1.747
1.747
1.747
1.751
1.754
1.758
1.761
1.765
1.765
1.765
1.769
1.765
1.769
1.769
1.769
1.772
1.776
1.776
1.776
1.776
1.776
1.779
1.779
1.779
1.783
1.787
1.787
1.787
1.790
1.790
1.790
1.790
1.794
1.790
1.790
1.790
1.794
1.794
1.798
1.798
1.798
1.798
1.801
1.798
1.801
1.801
1.801
1.805
1.805
1.808
1.808
1.808
1.812
1.816
1.812
1.812
1.808
1.808
1.812
1.812
1.816
1.819
1.823
1.823
1.826
1.823
1.823
1.819
1.819
1.819
1.819
1.819
1.823
1.823
1.826
1.830
1.830
1.830
1.834
1.837
1.841
1.841
1.845
1.845
1.845
1.841
1.841
1.841
1.837
1.841
1.841
1.845
1.845
1.848
1.852
1.852
1.855
1.855
1.855
1.852
1.852
1.852
1.852
1.852
1.852
1.848
1.848
1.848
1.845
1.841
1.841
1.841
1.845
1.845
1.845
1.845
1.841
1.841
1.848
1.848
1.852
1.855
1.855
1.852
1.852
1.852
1.848
1.845
1.841
1.837
1.834
1.834
1.837
1.841
1.852
1.859
1.870
1.877
1.884
1.892
1.902
1.906
1.910
1.910
1.910
1.906
1.902
1.899
1.895
1.892
1.892
1.888
1.888
1.888
1.892
1.899
1.902
1.906
1.906
1.902
1.895
1.888
1.877
1.866
1.859
1.859
1.863
1.866
1.870
1.874
1.877
1.877
1.874
1.874
1.870
1.874
1.874
1.874
1.877
1.884
1.888
1.892
1.895
1.895
1.895
1.895
1.895
1.892
1.888
1.884
1.884
1.884
1.884
1.892
1.895
1.895
1.899
1.902
1.906
1.906
1.906
1.906
1.902
1.892
1.877
1.855
1.823
1.787
1.747
1.704
1.667
1.646
1.664
1.725
1.855
2.062
2.322
2.597
2.886
3.150
3.346
3.454
3.497
3.516
3.534
3.552
3.548
3.494
3.393
3.252
3.074
2.875
2.687
2.528
2.405
2.322
2.264
2.224
2.195
2.163
2.127
2.091
2.047
2.007
1.968
1.931
1.899
1.870
1.855
1.834
1.826
1.819
1.816
1.812
1.816
1.812
1.812
1.808
1.808
1.808
1.805
1.801
1.801
1.801
1.801
1.798
1.798
1.794
1.794
1.798
1.798
1.794
1.794
1.798
1.798
1.801
1.805
1.808
1.812
1.816
1.823
1.823
1.823
1.823
1.826
1.826
1.826
1.826
1.830
1.834
1.837
1.845
1.841
1.845
1.848
1.852
1.855
1.855
1.855
1.859
1.863
1.866
1.874
1.874
1.877
1.884
1.888
1.895
1.902
1.910
1.917
1.928
1.935
1.946
1.949
1.957
1.960
1.964
1.971
1.978
1.986
1.993
2.000
2.011
2.022
2.029
2.036
2.047
2.058
2.065
2.076
2.087
2.098
2.105
2.116
2.123
2.127
2.130
2.134
2.138
2.145
2.152
2.156
2.159
2.163
2.166
2.159
2.156
2.156
2.152
2.148
2.141
2.134
2.123
2.109
2.094
2.080
2.058
2.036
2.015
1.993
1.971
1.953
1.931
1.913
1.892
1.874
1.852
1.834
1.816
1.801
1.787
1.772
1.758
1.743
1.729
1.718
1.707
1.700
1.689
1.678
1.671
1.664
1.657
1.653
1.653
1.657
1.657
1.664
1.660
1.660
1.657
1.657
1.657
1.657
1.660
1.660
1.660
1.660
1.664
1.664
1.664
1.664
1.664
1.664
1.667
1.667
1.667
1.667
1.671
1.675
1.671
1.675
1.675
1.675
1.675
1.678
1.682
1.685
1.689
1.689
1.693
1.689
1.689
1.689
1.689
1.693
1.693
1.693
1.696
1.700
1.704
1.704
1.704
1.704
1.704
1.704
1.707
1.707
1.711
1.714
1.714
1.718
1.718
1.718
1.722
1.725
1.729
1.732
1.729
1.729
1.729
1.729
1.736
1.736
1.740
1.740
1.740
1.743
1.740
1.740
1.740
1.740
1.740
1.740
1.740
1.740
1.740
1.740
1.740
1.743
1.743
1.747
1.751
1.751
1.754
1.754
1.751
1.751
1.751
1.751
1.751
1.754
1.754
1.754
1.758
1.761
1.761
1.761
1.761
1.761
1.761
1.761
1.765
1.765
1.765
1.769
1.769
1.765
1.765
1.769
1.769
1.772
1.772
1.772
1.776
1.776
1.779
1.776
1.776
1.772
1.772
1.769
1.772
1.772
1.772
1.776
1.776
1.779
1.772
1.772
1.776
1.779
1.779
1.783
1.783
1.783
1.783
1.787
1.790
1.787
1.790
1.790
1.790
1.790
1.790
1.783
1.779
1.779
1.783
1.790
1.790
1.794
1.794
1.798
1.798
1.798
1.798
1.798
1.798
1.798
1.798
1.801
1.801
1.805
1.805
1.805
1.805
1.805
1.805
1.801
1.805
1.805
1.805
1.801
1.798
1.794
1.790
1.787
1.783
1.783
1.783
1.787
1.790
1.798
1.808
1.819
1.830
1.841
1.848
1.852
1.855
1.859
1.863
1.859
1.859
1.855
1.852
1.845
1.841
1.837
1.837
1.837
1.841
1.848
1.852
1.859
1.863
1.863
1.859
1.852
1.845
1.837
1.826
1.819
1.812
1.808
1.808
1.808
1.812
1.816
1.816
1.816
1.816
1.812
1.812
1.812
1.808
1.805
1.805
1.805
1.808
1.808
1.812
1.816
1.816
1.819
1.816
1.812
1.812
1.812
1.816
1.816
1.819
1.819
1.823
1.823
1.826
1.823
1.823
1.819
1.816
1.812
1.798
1.787
1.769
1.743
1.711
1.675
1.628
1.588
1.566
1.581
1.642
1.765
1.964
2.213
2.492
2.774
3.042
3.248
3.367
3.425
3.458
3.483
3.505
3.501
3.450
3.353
3.219
3.038
2.825
2.622
2.449
2.315
2.224
2.163
2.123
2.094
2.069
2.043
2.004
1.964
1.924
1.881
1.845
1.816
1.794
1.772
1.758
1.747
1.740
1.732
1.725
1.722
1.718
1.718
1.714
1.714
1.711
1.711
1.707
1.707
1.707
1.707
1.707
1.707
1.711
1.711
1.714
1.718
1.722
1.722
1.725
1.725
1.725
1.725
1.729
1.729
1.729
1.729
1.732
1.736
1.740
1.743
1.747
1.751
1.758
1.761
1.765
1.769
1.772
1.772
1.772
1.776
1.776
1.779
1.783
1.787
1.790
1.794
1.801
1.805
1.812
1.819
1.826
1.826
1.834
1.837
1.845
1.852
1.863
1.870
1.881
1.888
1.895
1.902
1.906
1.913
1.917
1.924
1.935
1.946
1.960
1.971
1.982
1.989
2.000
2.007
2.015
2.022
2.033
2.043
2.051
2.062
2.065
2.072
2.076
2.083
2.083
2.087
2.091
2.094
2.101
2.109
2.112
2.119
2.123
2.127
2.123
2.119
2.116
2.112
2.105
2.098
2.087
2.072
2.058
2.043
2.029
2.007
1.986
1.960
1.939
1.921
1.899
1.877
1.855
1.834
1.812
1.794
1.772
1.754
1.740
1.725
1.714
1.707
1.700
1.693
1.685
1.682
1.678
1.675
1.671
1.667
1.664
1.660
1.653
1.649
1.649
1.649
1.653
1.657
1.653
1.653
1.649
1.649
1.653
1.657
1.657
1.660
1.664
1.667
1.667
1.667
1.667
1.667
1.675
1.678
1.682
1.685
1.689
1.693
1.704
1.707
1.718
1.722
1.725
1.725
1.725
1.722
1.722
1.722
1.722
1.725
1.725
1.729
1.729
1.729
1.732
1.740
1.747
1.751
1.758
1.761
1.765
1.761
1.761
1.761
1.765
1.772
1.772
1.776
1.772
1.776
1.783
1.790
1.787
1.790
1.794
1.794
1.790
1.787
1.783
1.783
1.783
1.783
1.783
1.776
1.776
1.779
1.783
1.790
1.794
1.801
1.808
1.812
1.816
1.816
1.812
1.805
1.794
1.779
1.776
1.772
1.769
1.769
1.772
1.779
1.787
1.794
1.801
1.805
1.805
1.805
1.801
1.794
1.787
1.779
1.776
1.769
1.765
1.765
1.765
1.769
1.772
1.776
1.783
1.783
1.787
1.790
1.790
1.794
1.798
1.801
1.808
1.808
1.808
1.808
1.805
1.805
1.805
1.805
1.805
1.808
1.812
1.812
1.816
1.819
1.819
1.823
1.819
1.816
1.812
1.812
1.812
1.812
1.816
1.819
1.823
1.830
1.834
1.841
1.837
1.834
1.826
1.823
1.819
1.816
1.808
1.808
1.805
1.808
1.812
1.805
1.801
1.801
1.801
1.805
1.805
1.808
1.808
1.808
1.808
1.812
1.812
1.812
1.808
1.812
1.816
1.816
1.816
1.816
1.812
1.808
1.805
1.805
1.801
1.798
1.794
1.794
1.790
1.790
1.787
1.787
1.790
1.790
1.787
1.787
1.787
1.787
1.790
1.794
1.801
1.808
1.816
1.823
1.823
1.819
1.816
1.808
1.805
1.798
1.790
1.787
1.783
1.787
1.790
1.790
1.794
1.794
1.790
1.787
1.787
1.783
1.776
1.769
1.758
1.743
1.729
1.722
1.718
1.718
1.722
1.722
1.725
1.725
1.729
1.729
1.725
1.722
1.722
1.718
1.718
1.711
1.707
1.704
1.700
1.700
1.700
1.700
1.693
1.689
1.689
1.689
1.693
1.696
1.696
1.696
1.693
1.696
1.696
1.696
1.700
1.700
1.693
1.689
1.678
1.660
1.642
1.617
1.581
1.537
1.494
1.450
1.414
1.411
1.458
1.566
1.751
1.993
2.257
2.525
2.774
2.977
3.100
3.150
3.179
3.208
3.244
3.266
3.237
3.157
3.035
2.861
2.658
2.459
2.286
2.148
2.051
1.982
1.935
1.899
1.870
1.837
1.801
1.761
1.722
1.678
1.638
1.599
1.570
1.544
1.526
1.508
1.490
1.476
1.465
1.458
1.454
1.454
1.458
1.458
1.458
1.458
1.461
1.458
1.450
1.443
1.439
1.436
1.436
1.439
1.443
1.447
1.450
1.454
1.454
1.450
1.447
1.443
1.443
1.443
1.447
1.447
1.447
1.450
1.454
1.458
1.458
1.454
1.450
1.450
1.454
1.458
1.458
1.458
1.458
1.454
1.447
1.439
1.425
1.414
1.411
1.411
1.421
1.432
1.443
1.458
1.465
1.465
1.461
1.461
1.461
1.461
1.461
1.461
1.465
1.465
1.468
1.468
1.468
1.472
1.472
1.479
1.487
1.494
1.505
1.515
1.523
1.534
1.534
1.534
1.537
1.541
1.552
1.562
1.566
1.570
1.570
1.570
1.573
1.573
1.577
1.581
1.588
1.591
1.599
1.606
1.613
1.617
1.620
1.620
1.624
1.624
1.620
1.609
1.599
1.584
1.566
1.548
1.530
1.515
1.501
1.483
1.465
1.447
1.425
1.407
1.385
1.364
1.345
1.324
1.302
1.277
1.248
1.219
1.197
1.175
1.161
1.150
1.143
1.139
1.139
1.139
1.125
1.114
1.103
1.096
1.089
1.081
1.074
1.067
1.060
1.049
1.049
1.049
1.052
1.052
1.049
1.049
1.049
1.049
1.052
1.056
1.060
1.063
1.067
1.067
1.067
1.067
1.063
1.060
1.052
1.049
1.045
1.045
1.049
1.052
1.060
1.067
1.071
1.071
1.074
1.074
1.071
1.071
1.071
1.071
1.071
1.067
1.071
1.071
1.071
1.074
1.074
1.074
1.074
1.078
1.081
1.085
1.089
1.092
1.096
1.100
1.100
1.100
1.096
1.092
1.085
1.078
1.078
1.078
1.085
1.092
1.096
1.100
1.100
1.100
1.103
1.110
1.110
1.110
1.110
1.110
1.107
1.103
1.103
1.103
1.103
1.107
1.110
1.114
1.114
1.121
1.125
1.128
1.132
1.136
1.136
1.136
1.136
1.136
1.136
1.136
1.136
1.136
1.139
1.143
1.143
1.143
1.143
1.143
1.143
1.143
1.143
1.139
1.139
1.139
1.143
1.147
1.150
1.154
1.157
1.161
1.161
1.157
1.157
1.161
1.161
1.161
1.157
1.154
1.150
1.150
1.150
1.150
1.154
1.157
1.161
1.165
1.168
1.172
1.172
1.175
1.179
1.179
1.179
1.179
1.183
1.183
1.186
1.186
1.190
1.194
1.194
1.194
1.197
1.201
1.204
1.208
1.212
1.215
1.215
1.215
1.219
1.219
1.215
1.212
1.212
1.215
1.219
1.222
1.226
1.230
1.230
1.230
1.230
1.230
1.230
1.237
1.241
1.237
1.237
1.233
1.233
1.233
1.237
1.241
1.241
1.237
1.237
1.241
1.241
1.244
1.248
1.248
1.248
1.248
1.251
1.251
1.248
1.248
1.244
1.244
1.244
1.248
1.255
1.266
1.277
1.280
1.288
1.295
1.306
1.317
1.324
1.331
1.338
1.342
1.342
1.345
1.342
1.338
1.338
1.338
1.342
1.342
1.342
1.345
1.349
1.353
1.360
1.364
1.367
1.367
1.367
1.364
1.356
1.349
1.345
1.342
1.338
1.338
1.335
1.335
1.335
1.338
1.345
1.349
1.356
1.360
1.364
1.367
1.371
1.371
1.371
1.371
1.371
1.374
1.378
1.382
1.385
1.385
1.389
1.389
1.385
1.382
1.382
1.382
1.382
1.382
1.385
1.385
1.389
1.392
1.392
1.392
1.385
1.374
1.356
1.331
1.295
1.251
1.215
1.194
1.197
1.241
1.338
1.512
1.736
1.982
2.232
2.459
2.629
2.727
2.767
2.781
2.803
2.839
2.857
2.843
2.785
2.691
2.564
2.412
2.264
2.130
2.022
1.935
1.874
1.823
1.779
1.743
1.711
1.675
1.638
1.602
1.566
1.534
1.505
1.479
1.461
1.447
1.439
1.432
1.432
1.429
1.425
1.425
1.421
1.418
1.421
1.421
1.429
1.429
1.432
1.436
1.439
1.443
1.447
1.447
1.447
1.447
1.450
1.450
1.454
1.461
1.468
1.472
1.479
1.487
1.490
1.494
1.494
1.497
1.501
1.501
1.501
1.505
1.505
1.512
1.519
1.523
1.530
1.537
1.541
1.548
1.555
1.562
1.566
1.570
1.570
1.577
1.577
1.584
1.591
1.599
1.606
1.617
1.624
1.631
1.642
1.653
1.657
1.664
1.671
1.678
1.685
1.696
1.707
1.718
1.729
1.740
1.754
1.758
1.765
1.772
1.779
1.790
1.798
1.808
1.823
1.837
1.852
1.866
1.874
1.881
1.888
1.895
1.906
1.913
1.921
1.928
1.939
1.949
1.964
1.968
1.975
1.978
1.986
1.993
1.993
1.993
1.993
1.993
1.989
1.986
1.982
1.975
1.971
1.968
1.960
1.949
1.939
1.924
1.910
1.888
1.870
1.845
1.823
1.798
1.776
1.758
1.736
1.718
1.704
1.693
1.682
1.671
1.660
1.649
1.642
1.631
1.624
1.617
1.609
1.606
1.602
1.602
1.599
1.595
1.595
1.595
1.595
1.599
1.602
1.602
1.602
1.606
1.609
1.609
1.613
1.617
1.620
1.624
1.628
1.631
1.631
1.635
1.638
1.642
1.646
1.649
1.657
1.667
1.675
1.678
1.682
1.685
1.689
1.693
1.693
1.696
1.704
1.707
1.711
1.714
1.718
1.722
1.718
1.718
1.722
1.725
1.729
1.732
1.740
1.743
1.747
1.751
1.754
1.758
1.761
1.769
1.769
1.772
1.776
1.779
1.783
1.783
1.787
1.790
1.794
1.794
1.798
1.798
1.798
1.801
1.801
1.801
1.805
1.812
1.816
1.823
1.834
1.841
1.845
1.848
1.848
1.848
1.848
1.852
1.852
1.855
1.855
1.859
1.866
1.870
1.874
1.877
1.881
1.881
1.884
1.884
1.884
1.884
1.888
1.888
1.888
1.888
1.888
1.892
1.892
1.892
1.895
1.899
1.902
1.910
1.910
1.910
1.913
1.917
1.917
1.921
1.924
1.928
1.931
1.939
1.942
1.939
1.935
1.935
1.939
1.939
1.939
1.942
1.942
1.942
1.942
1.946
1.946
1.946
1.946
1.949
1.953
1.953
1.957
1.957
1.960
1.964
1.964
1.964
1.964
1.968
1.968
1.968
1.971
1.968
1.968
1.968
1.971
1.975
1.971
1.971
1.975
1.975
1.975
1.975
1.978
1.978
1.978
1.978
1.975
1.971
1.968
1.968
1.971
1.971
1.968
1.971
1.971
1.971
1.975
1.975
1.975
1.975
1.975
1.975
1.975
1.978
1.982
1.989
2.000
2.011
2.022
2.029
2.033
2.036
2.040
2.040
2.043
2.043
2.043
2.040
2.036
2.029
2.025
2.022
2.022
2.022
2.022
2.025
2.029
2.033
2.036
2.040
2.036
2.036
2.033
2.025
2.018
2.011
2.007
2.004
2.000
2.004
2.000
1.996
1.993
1.993
1.993
1.996
1.996
2.000
2.004
2.011
2.015
2.015
2.015
2.015
2.015
2.015
2.011
2.011
2.007
2.011
2.011
2.018
2.018
2.018
2.022
2.022
2.022
2.022
2.018
2.018
2.018
2.015
2.011
2.004
1.989
1.971
1.946
1.913
1.877
1.837
1.805
1.772
1.761
1.783
1.852
1.996
2.217
2.481
2.760
3.027
3.255
3.407
3.479
3.501
3.497
3.505
3.512
3.490
3.432
3.324
3.183
3.020
2.857
2.713
2.597
2.503
2.438
2.391
2.347
2.311
2.275
2.235
2.195
2.156
2.109
2.069
2.029
1.996
1.971
1.953
1.939
1.928
1.924
1.921
1.921
1.921
1.921
1.917
1.913
1.913
1.913
1.910
1.906
1.906
1.902
1.902
1.906
1.906
1.906
1.906
1.906
1.906
1.910
1.910
1.913
1.913
1.917
1.924
1.921
1.924
1.924
1.924
1.924
1.924
1.924
1.928
1.931
1.935
1.942
1.942
1.946
1.949
1.957
1.960
1.964
1.964
1.968
1.971
1.975
1.982
1.982
1.989
1.996
2.004
2.011
2.018
2.022
2.025
2.029
2.033
2.040
2.047
2.054
2.062
2.069
2.076
2.080
2.087
2.091
2.098
2.105
2.112
2.116
2.123
2.130
2.141
2.148
2.159
2.166
2.174
2.185
2.192
2.195
2.206
2.213
2.221
2.224
2.232
2.239
2.246
2.253
2.257
2.268
2.268
2.275
2.279
2.282
2.286
2.286
2.289
2.289
2.286
2.279
2.275
2.261
2.253
2.246
2.235
2.228
2.217
2.203
2.185
2.166
2.145
2.127
2.101
2.080
2.058
2.036
2.018
1.996
1.978
1.960
1.942
1.928
1.913
1.899
1.884
1.874
1.863
1.855
1.845
1.841
1.834
1.826
1.826
1.819
1.816
1.812
1.812
1.808
1.812
1.812
1.816
1.816
1.816
1.816
1.812
1.812
1.816
1.816
1.816
1.816
1.816
1.816
1.816
1.816
1.819
1.816
1.819
1.826
1.830
1.837
1.841
1.845
1.845
1.845
1.845
1.845
1.841
1.841
1.837
1.837
1.841
1.848
1.855
1.859
1.866
1.870
1.877
1.874
1.877
1.877
1.881
1.881
1.884
1.888
1.888
1.892
1.895
1.895
1.895
1.895
1.895
1.899
1.899
1.902
1.902
1.902
1.902
1.906
1.906
1.906
1.910
1.910
1.913
1.913
1.913
1.913
1.917
1.921
1.928
1.928
1.928
1.928
1.928
1.931
1.931
1.935
1.939
1.939
1.935
1.935
1.928
1.928
1.931
1.931
1.931
1.931
1.931
1.935
1.939
1.939
1.942
1.942
1.942
1.946
1.949
1.949
1.949
1.949
1.949
1.949
1.953
1.949
1.946
1.946
1.946
1.946
1.946
1.949
1.953
1.953
1.957
1.960
1.960
1.957
1.960
1.957
1.957
1.957
1.957
1.957
1.960
1.960
1.960
1.957
1.957
1.957
1.960
1.960
1.964
1.964
1.964
1.964
1.968
1.971
1.968
1.971
1.975
1.978
1.982
1.986
1.993
1.993
1.996
1.993
1.993
1.986
1.982
1.978
1.975
1.975
1.975
1.982
1.986
1.989
1.996
2.000
2.000
1.996
1.996
1.996
1.996
1.996
2.000
2.000
1.996
1.996
1.996
1.996
1.996
2.000
2.004
2.007
2.007
2.011
2.015
2.015
2.015
2.007
2.000
1.996
1.993
1.996
2.004
2.011
2.025
2.036
2.043
2.051
2.051
2.054
2.054
2.058
2.058
2.058
2.058
2.054
2.051
2.047
2.051
2.051
2.054
2.058
2.062
2.062
2.065
2.069
2.072
2.072
2.069
2.062
2.058
2.051
2.040
2.036
2.033
2.033
2.036
2.040
2.040
2.043
2.040
2.040
2.036
2.033
2.033
2.029
2.029
2.033
2.036
2.040
2.043
2.040
2.040
2.040
2.040
2.040
2.040
2.043
2.043
2.047
2.051
2.054
2.058
2.062
2.062
2.065
2.065
2.062
2.062
2.054
2.043
2.029
2.011
1.986
1.953
1.913
1.870
1.830
1.805
1.812
1.866
1.975
2.156
2.391
2.651
2.922
3.186
3.400
3.523
3.573
3.584
3.591
3.595
3.599
3.588
3.555
3.469
3.327
3.143
2.951
2.774
2.626
2.514
2.430
2.376
2.336
2.300
2.268
2.235
2.199
2.159
2.119
2.083
2.051
2.025
2.007
1.989
1.978
1.971
1.968
1.964
1.960
1.960
1.960
1.960
1.960
1.960
1.957
1.953
1.949
1.949
1.946
1.946
1.949
1.953
1.953
1.957
1.960
1.960
1.960
1.964
1.964
1.964
1.964
1.964
1.964
1.964
1.968
1.971
1.975
1.975
1.978
1.978
1.982
1.986
1.989
1.993
2.000
2.007
2.007
2.011
2.015
2.015
2.015
2.018
2.018
2.018
2.018
2.018
2.025
2.025
2.033
2.040
2.047
2.058
2.065
2.069
2.076
2.080
2.087
2.094
2.098
2.105
2.109
2.116
2.123
2.130
2.138
2.145
2.152
2.163
2.170
2.177
2.188
2.195
2.203
2.210
2.217
2.224
2.232
2.235
2.246
2.250
2.257
2.264
2.271
2.282
2.289
2.293
2.297
2.300
2.308
2.311
2.308
2.308
2.308
2.308
2.304
2.308
2.308
2.308
2.308
2.300
2.297
2.282
2.271
2.257
2.242
2.228
2.210
2.192
2.174
2.156
2.138
2.112
2.091
2.069
2.051
2.033
2.018
2.004
1.989
1.975
1.964
1.949
1.931
1.921
1.910
1.902
1.895
1.888
1.884
1.881
1.877
1.874
1.877
1.874
1.870
1.866
1.866
1.863
1.863
1.863
1.866
1.870
1.870
1.874
1.866
1.866
1.866
1.866
1.866
1.866
1.866
1.874
1.877
1.881
1.881
1.884
1.888
1.892
1.892
1.888
1.888
1.888
1.888
1.892
1.895
1.899
1.895
1.895
1.895
1.895
1.895
1.892
1.892
1.895
1.899
1.902
1.906
1.910
1.913
1.913
1.917
1.913
1.913
1.913
1.913
1.913
1.917
1.917
1.917
1.921
1.924
1.924
1.931
1.931
1.931
1.935
1.935
1.935
1.935
1.939
1.939
1.939
1.942
1.942
1.946
1.949
1.953
1.957
1.960
1.953
1.953
1.953
1.953
1.953
1.953
1.957
1.960
1.960
1.964
1.968
1.968
1.968
1.971
1.971
1.971
1.971
1.971
1.971
1.971
1.975
1.971
1.968
1.968
1.968
1.971
1.975
1.978
1.982
1.982
1.982
1.986
1.978
1.978
1.975
1.975
1.975
1.975
1.975
1.978
1.982
1.982
1.986
1.986
1.982
1.982
1.982
1.986
1.986
1.989
1.989
1.989
1.993
1.993
1.989
1.989
1.986
1.982
1.982
1.986
1.986
1.989
1.993
1.993
1.996
1.996
2.000
2.000
2.004
2.004
2.007
2.007
2.007
2.007
2.011
2.011
2.007
2.004
2.004
2.004
2.004
2.004
2.004
2.007
2.011
2.015
2.015
2.015
2.015
2.011
2.011
2.007
2.007
2.004
2.004
2.004
2.007
2.004
2.004
2.000
2.000
2.000
2.000
2.000
2.004
2.004
2.004
2.004
2.000
2.000
2.000
2.004
2.011
2.015
2.025
2.033
2.040
2.051
2.051
2.058
2.062
2.065
2.069
2.069
2.069
2.065
2.062
2.054
2.051
2.043
2.040
2.043
2.047
2.047
2.051
2.051
2.051
2.051
2.051
2.051
2.043
2.033
2.025
2.022
2.018
2.018
2.022
2.025
2.029
2.029
2.033
2.029
2.025
2.025
2.029
2.029
2.033
2.033
2.033
2.036
2.036
2.036
2.036
2.036
2.040
2.040
2.043
2.043
2.043
2.043
2.043
2.043
2.040
2.033
2.033
2.029
2.029
2.029
2.029
2.025
2.018
2.004
1.986
1.957
1.924
1.884
1.845
1.812
1.794
1.808
1.870
1.989
2.181
2.423
2.684
2.948
3.194
3.374
3.476
3.512
3.530
3.552
3.570
3.570
3.541
3.461
3.346
3.186
3.006
2.825
2.669
2.543
2.452
2.383
2.333
2.297
2.257
2.221
2.177
2.138
2.098
2.062
2.025
1.996
1.971
1.953
1.942
1.928
1.924
1.917
1.917
1.913
1.913
1.910
1.906
1.902
1.902
1.899
1.895
1.892
1.888
1.888
1.888
1.888
1.888
1.888
1.888
1.892
1.895
1.895
1.892
1.892
1.892
1.892
1.892
1.895
1.895
1.895
1.895
1.892
1.895
1.899
1.902
1.906
1.913
1.917
1.924
1.928
1.931
1.939
1.939
1.939
1.939
1.939
1.942
1.942
1.942
1.946
1.949
1.953
1.960
1.964
1.971
1.975
1.982
1.986
1.986
1.989
1.993
1.996
2.004
2.011
2.015
2.022
2.025
2.029
2.036
2.043
2.051
2.058
2.069
2.083
2.087
2.091
2.094
2.098
2.105
2.109
2.116
2.119
2.127
2.134
2.145
2.152
2.156
2.163
2.166
2.174
2.181
2.188
2.192
2.195
2.199
2.206
2.206
2.206
2.210
2.210
2.210
2.206
2.206
2.203
2.195
2.188
2.177
2.163
2.148
2.130
2.116
2.101
2.083
2.065
2.047
2.025
2.011
1.989
1.971
1.953
1.939
1.921
1.906
1.888
1.874
1.859
1.841
1.830
1.816
1.808
1.798
1.794
1.787
1.787
1.783
1.779
1.772
1.769
1.765
1.761
1.761
1.761
1.765
1.769
1.772
1.772
1.776
1.776
1.776
1.779
1.776
1.776
1.776
1.776
1.779
1.783
1.787
1.790
1.790
1.794
1.798
1.798
1.798
1.798
1.798
1.798
1.798
1.801
1.801
1.805
1.812
1.808
1.805
1.805
1.805
1.808
1.812
1.819
1.826
1.834
1.845
1.852
1.855
1.859
1.859
1.859
1.855
1.852
1.848
1.845
1.841
1.837
1.837
1.834
1.830
1.830
1.830
1.830
1.830
1.834
1.837
1.845
1.848
1.852
1.855
1.859
1.866
1.870
1.874
1.870
1.870
1.866
1.863
1.859
1.863
1.859
1.859
1.863
1.863
1.866
1.870
1.870
1.870
1.870
1.874
1.870
1.870
1.870
1.866
1.866
1.866
1.870
1.874
1.874
1.877
1.881
1.881
1.881
1.881
1.881
1.881
1.881
1.881
1.877
1.877
1.881
1.881
1.881
1.881
1.881
1.877
1.877
1.874
1.870
1.866
1.863
1.863
1.863
1.863
1.863
1.863
1.866
1.866
1.870
1.870
1.870
1.866
1.866
1.866
1.863
1.859
1.859
1.855
1.855
1.855
1.855
1.855
1.855
1.855
1.852
1.852
1.848
1.845
1.845
1.845
1.845
1.845
1.845
1.845
1.848
1.845
1.841
1.841
1.841
1.837
1.837
1.834
1.834
1.834
1.834
1.837
1.834
1.830
1.823
1.819
1.816
1.816
1.816
1.819
1.823
1.823
1.830
1.830
1.830
1.834
1.841
1.845
1.852
1.859
1.870
1.877
1.881
1.884
1.884
1.884
1.884
1.884
1.884
1.877
1.874
1.870
1.866
1.866
1.863
1.863
1.866
1.870
1.874
1.877
1.877
1.877
1.877
1.870
1.863
1.855
1.845
1.837
1.837
1.837
1.837
1.837
1.834
1.834
1.834
1.837
1.837
1.841
1.845
1.852
1.855
1.863
1.863
1.863
1.863
1.863
1.863
1.855
1.848
1.845
1.841
1.841
1.845
1.848
1.852
1.852
1.855
1.859
1.859
1.859
1.863
1.863
1.859
1.855
1.841
1.823
1.798
1.769
1.740
1.704
1.667
1.635
1.606
1.602
1.638
1.732
1.902
2.148
2.430
2.713
2.973
3.183
3.313
3.364
3.371
3.367
3.371
3.374
3.342
3.273
3.147
2.987
2.814
2.644
2.503
2.391
2.311
2.253
2.210
2.166
2.134
2.094
2.054
2.015
1.975
1.931
1.892
1.855
1.826
1.805
1.787
1.772
1.758
1.747
1.743
1.740
1.736
1.732
1.732
1.729
1.725
1.725
1.725
1.722
1.722
1.722
1.722
1.722
1.722
1.725
1.725
1.725
1.729
1.732
1.729
1.732
1.732
1.732
1.732
1.736
1.740
1.740
1.740
1.743
1.743
1.740
1.740
1.740
1.743
1.743
1.751
1.754
1.758
1.761
1.765
1.765
1.769
1.769
1.769
1.772
1.772
1.776
1.779
1.787
1.790
1.794
1.798
1.805
1.816
1.823
1.830
1.841
1.845
1.852
1.859
1.866
1.877
1.881
1.884
1.888
1.895
1.899
1.902
1.910
1.917
1.924
1.931
1.942
1.946
1.953
1.960
1.968
1.978
1.986
1.993
1.996
2.004
2.015
2.015
2.018
2.022
2.025
2.029
2.033
2.036
2.040
2.043
2.047
2.054
2.054
2.054
2.058
2.058
2.058
2.058
2.054
2.051
2.043
2.036
2.025
2.011
1.996
1.982
1.968
1.949
1.935
1.917
1.902
1.884
1.870
1.859
1.837
1.816
1.794
1.772
1.754
1.736
1.718
1.707
1.696
1.685
1.678
1.667
1.657
1.646
1.642
1.635
1.631
1.628
1.628
1.624
1.624
1.620
1.613
1.609
1.609
1.606
1.606
1.606
1.609
1.609
1.609
1.609
1.606
1.606
1.606
1.606
1.609
1.609
1.613
1.617
1.620
1.624
1.628
1.628
1.628
1.631
1.635
1.638
1.638
1.646
1.649
1.653
1.657
1.660
1.660
1.664
1.664
1.664
1.660
1.660
1.660
1.664
1.664
1.664
1.667
1.667
1.671
1.675
1.675
1.678
1.675
1.678
1.678
1.678
1.682
1.685
1.689
1.693
1.696
1.700
1.704
1.707
1.711
1.711
1.711
1.707
1.704
1.700
1.700
1.704
1.707
1.711
1.711
1.714
1.718
1.722
1.725
1.725
1.729
1.729
1.729
1.725
1.725
1.725
1.732
1.736
1.740
1.747
1.747
1.747
1.747
1.747
1.743
1.740
1.736
1.736
1.736
1.736
1.743
1.740
1.740
1.740
1.743
1.747
1.747
1.751
1.751
1.754
1.758
1.758
1.758
1.754
1.754
1.754
1.754
1.751
1.754
1.758
1.761
1.769
1.765
1.765
1.765
1.765
1.769
1.769
1.772
1.776
1.779
1.779
1.776
1.776
1.776
1.776
1.772
1.769
1.772
1.772
1.776
1.779
1.776
1.776
1.769
1.769
1.776
1.776
1.776
1.776
1.776
1.779
1.783
1.787
1.794
1.798
1.801
1.805
1.808
1.808
1.805
1.805
1.805
1.805
1.805
1.805
1.798
1.794
1.790
1.787
1.787
1.790
1.790
1.794
1.794
1.801
1.801
1.798
1.801
1.805
1.808
1.819
1.834
1.841
1.852
1.855
1.855
1.855
1.855
1.852
1.852
1.848
1.845
1.845
1.845
1.852
1.855
1.863
1.870
1.874
1.874
1.874
1.874
1.874
1.870
1.863
1.855
1.845
1.841
1.830
1.826
1.826
1.830
1.837
1.841
1.841
1.841
1.841
1.845
1.848
1.848
1.852
1.855
1.859
1.855
1.855
1.852
1.848
1.845
1.841
1.845
1.845
1.845
1.852
1.855
1.859
1.859
1.859
1.859
1.863
1.866
1.870
1.870
1.874
1.877
1.877
1.870
1.855
1.837
1.808
1.776
1.740
1.696
1.657
1.635
1.635
1.671
1.758
1.906
2.112
2.355
2.608
2.865
3.089
3.244
3.317
3.349
3.374
3.407
3.432
3.425
3.374
3.284
3.161
2.995
2.814
2.637
2.481
2.362
2.275
2.210
2.163
2.127
2.087
2.047
2.007
1.964
1.924
1.884
1.852
1.823
1.801
1.787
1.776
1.772
1.772
1.761
1.761
1.758
1.751
1.751
1.747
1.743
1.740
1.732
1.732
1.729
1.729
1.732
1.729
1.729
1.729
1.729
1.729
1.732
1.736
1.740
1.736
1.740
1.740
1.740
1.743
1.747
1.754
1.754
1.758
1.758
1.761
1.758
1.754
1.751
1.751
1.758
1.761
1.769
1.772
1.779
1.779
1.783
1.779
1.783
1.783
1.783
1.787
1.787
1.794
1.798
1.805
1.816
1.816
1.819
1.826
1.830
1.837
1.845
1.848
1.855
1.859
1.863
1.870
1.870
1.874
1.877
1.884
1.884
1.892
1.902
1.910
1.917
1.928
1.939
1.946
1.953
1.957
1.964
1.971
1.978
1.982
1.989
1.989
1.993
2.004
2.004
2.011
2.018
2.022
2.029
2.033
2.036
2.036
2.036
2.040
2.043
2.040
2.036
2.036
2.033
2.033
2.033
2.029
2.025
2.022
2.018
2.011
1.996
1.982
1.968
1.953
1.935
1.913
1.895
1.877
1.859
1.841
1.823
1.808
1.794
1.776
1.761
1.747
1.740
1.729
1.718
1.707
1.700
1.685
1.678
1.671
1.660
1.653
1.649
1.646
1.642
1.642
1.642
1.646
1.646
1.649
1.649
1.649
1.646
1.646
1.642
1.642
1.638
1.638
1.638
1.638
1.638
1.638
1.642
1.642
1.646
1.649
1.649
1.649
1.653
1.653
1.653
1.653
1.657
1.657
1.664
1.667
1.671
1.675
1.675
1.678
1.678
1.675
1.675
1.678
1.678
1.678
1.682
1.682
1.685
1.685
1.693
1.689
1.693
1.696
1.696
1.696
1.700
1.700
1.704
1.704
1.704
1.707
1.704
1.704
1.704
1.707
1.711
1.711
1.714
1.718
1.722
1.725
1.725
1.729
1.732
1.736
1.740
1.740
1.736
1.732
1.729
1.729
1.729
1.729
1.729
1.729
1.729
1.732
1.732
1.736
1.740
1.743
1.747
1.751
1.754
1.754
1.754
1.758
1.758
1.761
1.761
1.765
1.761
1.758
1.758
1.754
1.754
1.758
1.765
1.769
1.772
1.776
1.779
1.779
1.779
1.783
1.779
1.776
1.772
1.772
1.769
1.769
1.769
1.772
1.772
1.776
1.779
1.779
1.779
1.783
1.787
1.794
1.798
1.805
1.805
1.808
1.808
1.812
1.808
1.805
1.805
1.805
1.805
1.805
1.805
1.801
1.798
1.798
1.801
1.801
1.801
1.805
1.808
1.812
1.812
1.812
1.816
1.819
1.819
1.823
1.819
1.816
1.816
1.816
1.816
1.816
1.823
1.826
1.830
1.834
1.826
1.826
1.826
1.830
1.837
1.845
1.852
1.863
1.874
1.881
1.888
1.892
1.895
1.895
1.899
1.899
1.899
1.895
1.895
1.892
1.888
1.888
1.884
1.881
1.884
1.888
1.892
1.895
1.899
1.902
1.902
1.895
1.888
1.877
1.863
1.855
1.852
1.848
1.848
1.848
1.852
1.852
1.855
1.855
1.859
1.866
1.874
1.877
1.881
1.881
1.884
1.888
1.888
1.892
1.888
1.884
1.881
1.877
1.877
1.877
1.881
1.877
1.877
1.881
1.884
1.884
1.884
1.884
1.881
1.877
1.877
1.874
1.874
1.866
1.855
1.845
1.823
1.794
1.765
1.729
1.693
1.667
1.664
1.696
1.787
1.949
2.177
2.427
2.684
2.926
3.125
3.244
3.299
3.309
3.324
3.353
3.378
3.364
3.299
3.194
3.056
2.893
2.727
2.582
2.463
2.369
2.304
2.253
2.206
2.170
2.138
2.098
2.054
2.015
1.971
1.928
1.892
1.863
1.837
1.816
1.805
1.794
1.787
1.783
1.779
1.779
1.776
1.776
1.779
1.783
1.779
1.783
1.787
1.787
1.783
1.783
1.779
1.779
1.776
1.776
1.776
1.776
1.776
1.776
1.776
1.779
1.783
1.790
1.794
1.798
1.805
1.805
1.808
1.808
1.805
1.805
1.801
1.801
1.798
1.798
1.801
1.808
1.812
1.819
1.826
1.834
1.837
1.845
1.848
1.848
1.852
1.852
1.855
1.855
1.859
1.863
1.863
1.863
1.866
1.870
1.881
1.888
1.895
1.906
1.910
1.917
1.924
1.931
1.939
1.946
1.949
1.957
1.960
1.964
1.968
1.971
1.978
1.982
1.989
1.996
2.004
2.015
2.022
2.029
2.040
2.051
2.058
2.065
2.076
2.080
2.083
2.087
2.091
2.091
2.094
2.098
2.098
2.101
2.101
2.105
2.105
2.101
2.098
2.094
2.087
2.080
2.076
2.065
2.058
2.051
2.043
2.033
2.018
2.000
1.986
1.964
1.946
1.928
1.902
1.881
1.863
1.841
1.823
1.808
1.798
1.794
1.787
1.776
1.772
1.758
1.747
1.736
1.725
1.714
1.707
1.696
1.689
1.682
1.678
1.675
1.675
1.671
1.664
1.660
1.657
1.657
1.657
1.657
1.657
1.660
1.664
1.660
1.664
1.664
1.664
1.671
1.675
1.678
1.682
1.682
1.682
1.682
1.682
1.682
1.682
1.682
1.685
1.685
1.689
1.689
1.693
1.696
1.696
1.696
1.696
1.696
1.696
1.700
1.704
1.711
1.714
1.722
1.725
1.729
1.732
1.732
1.732
1.732
1.732
1.729
1.729
1.725
1.725
1.729
1.732
1.736
1.736
1.740
1.740
1.740
1.740
1.743
1.747
1.754
1.758
1.758
1.761
1.765
1.769
1.772
1.769
1.765
1.765
1.765
1.765
1.765
1.765
1.765
1.765
1.765
1.765
1.769
1.772
1.776
1.779
1.779
1.779
1.779
1.783
1.783
1.787
1.787
1.790
1.794
1.794
1.794
1.794
1.790
1.790
1.790
1.790
1.790
1.790
1.790
1.790
1.794
1.794
1.798
1.794
1.794
1.794
1.794
1.798
1.798
1.801
1.801
1.805
1.808
1.812
1.808
1.808
1.805
1.805
1.801
1.801
1.801
1.805
1.805
1.812
1.812
1.808
1.805
1.801
1.801
1.801
1.801
1.801
1.798
1.798
1.798
1.794
1.794
1.794
1.794
1.790
1.787
1.783
1.787
1.794
1.801
1.812
1.816
1.823
1.830
1.841
1.845
1.852
1.852
1.852
1.855
1.855
1.859
1.852
1.848
1.841
1.834
1.830
1.830
1.834
1.834
1.837
1.841
1.852
1.852
1.852
1.852
1.848
1.841
1.830
1.823
1.816
1.812
1.812
1.812
1.812
1.812
1.812
1.816
1.819
1.823
1.823
1.823
1.819
1.819
1.816
1.808
1.805
1.805
1.805
1.805
1.805
1.805
1.808
1.808
1.816
1.816
1.823
1.823
1.823
1.823
1.823
1.823
1.819
1.819
1.819
1.819
1.812
1.805
1.794
1.783
1.765
1.743
1.718
1.685
1.649
1.617
1.591
1.577
1.599
1.667
1.808
2.025
2.289
2.568
2.825
3.049
3.201
3.280
3.291
3.291
3.299
3.317
3.309
3.259
3.157
3.013
2.843
2.676
2.528
2.409
2.318
2.253
2.210
2.170
2.138
2.101
2.062
2.018
1.971
1.924
1.884
1.845
1.812
1.787
1.769
1.754
1.751
1.743
1.743
1.743
1.740
1.740
1.740
1.736
1.736
1.736
1.732
1.732
1.729
1.725
1.729
1.725
1.725
1.729
1.732
1.743
1.754
1.761
1.765
1.761
1.751
1.743
1.732
1.725
1.718
1.714
1.711
1.707
1.707
1.707
1.714
1.725
1.732
1.740
1.747
1.754
1.758
1.765
1.769
1.772
1.772
1.776
1.779
1.776
1.779
1.779
1.787
1.794
1.801
1.808
1.819
1.826
1.830
1.834
1.834
1.834
1.834
1.837
1.841
1.841
1.845
1.848
1.855
1.866
1.881
1.888
1.902
1.917
1.931
1.949
1.964
1.975
1.986
1.989
1.993
1.996
1.993
1.989
1.986
1.986
1.996
2.004
2.015
2.022
2.025
2.029
2.033
2.033
2.040
2.051
2.065
2.080
2.091
2.098
2.101
2.094
2.087
2.065
2.043
2.029
2.022
2.018
2.018
2.018
2.011
2.000
1.986
1.971
1.949
1.928
1.906
1.888
1.870
1.852
1.837
1.819
1.798
1.779
1.761
1.747
1.732
1.725
1.718
1.714
1.711
1.711
1.711
1.704
1.693
1.682
1.664
1.646
1.631
1.609
1.591
1.581
1.577
1.581
1.584
1.599
1.606
1.609
1.617
1.624
1.628
1.635
1.638
1.642
1.646
1.653
1.664
1.671
1.675
1.675
1.675
1.664
1.657
1.646
1.635
1.624
1.613
1.606
1.602
1.609
1.620
1.628
1.638
1.642
1.642
1.638
1.631
1.628
1.631
1.631
1.635
1.635
1.638
1.642
1.642
1.642
1.649
1.657
1.660
1.667
1.664
1.660
1.657
1.653
1.649
1.646
1.642
1.646
1.653
1.664
1.675
1.682
1.685
1.689
1.689
1.689
1.685
1.678
1.675
1.675
1.678
1.675
1.675
1.671
1.664
1.657
1.653
1.646
1.646
1.646
1.653
1.660
1.664
1.664
1.667
1.667
1.667
1.664
1.664
1.660
1.660
1.657
1.660
1.657
1.660
1.664
1.671
1.682
1.689
1.700
1.707
1.707
1.700
1.693
1.675
1.660
1.649
1.638
1.628
1.624
1.628
1.635
1.646
1.660
1.671
1.678
1.682
1.685
1.685
1.678
1.667
1.660
1.653
1.646
1.649
1.657
1.667
1.678
1.689
1.696
1.707
1.711
1.711
1.707
1.700
1.693
1.685
1.682
1.685
1.685
1.689
1.696
1.700
1.704
1.704
1.696
1.685
1.667
1.660
1.657
1.657
1.660
1.671
1.682
1.696
1.707
1.718
1.725
1.729
1.736
1.743
1.754
1.758
1.761
1.765
1.761
1.758
1.754
1.751
1.736
1.729
1.725
1.722
1.722
1.729
1.736
1.743
1.754
1.765
1.765
1.769
1.772
1.776
1.779
1.783
1.779
1.776
1.772
1.761
1.747
1.736
1.725
1.722
1.718
1.725
1.732
1.740
1.740
1.740
1.736
1.740
1.736
1.736
1.740
1.743
1.747
1.751
1.754
1.754
1.754
1.754
1.758
1.754
1.758
1.758
1.761
1.765
1.769
1.769
1.769
1.769
1.765
1.765
1.758
1.747
1.740
1.725
1.704
1.678
1.646
1.606
1.573
1.559
1.577
1.635
1.747
1.921
2.141
2.387
2.637
2.875
3.074
3.186
3.244
3.280
3.320
3.356
3.374
3.346
3.280
3.176
3.031
2.854
2.666
2.492
2.344
2.235
2.152
2.098
2.058
2.022
1.989
1.960
1.931
1.902
1.874
1.837
1.805
1.772
1.743
1.725
1.714
1.707
1.704
1.700
1.700
1.704
1.700
1.700
1.696
1.689
1.682
1.678
1.682
1.689
1.696
1.704
1.707
1.714
1.714
1.714
1.711
1.707
1.707
1.704
1.704
1.707
1.711
1.714
1.718
1.718
1.722
1.718
1.718
1.718
1.718
1.718
1.722
1.725
1.722
1.725
1.732
1.736
1.740
1.736
1.736
1.732
1.732
1.736
1.743
1.740
1.743
1.743
1.736
1.732
1.729
1.729
1.725
1.729
1.740
1.754
1.765
1.776
1.783
1.787
1.790
1.794
1.798
1.801
1.808
1.812
1.826
1.830
1.841
1.852
1.866
1.877
1.888
1.895
1.899
1.899
1.906
1.906
1.906
1.899
1.888
1.870
1.841
1.805
1.779
1.765
1.769
1.790
1.816
1.852
1.888
1.921
1.953
1.978
1.996
2.011
2.022
2.033
2.054
2.080
2.119
2.170
2.221
2.268
2.297
2.311
2.300
2.271
2.224
2.166
2.098
2.036
1.989
1.953
1.924
1.902
1.884
1.877
1.866
1.855
1.841
1.812
1.779
1.747
1.711
1.671
1.635
1.602
1.577
1.562
1.562
1.570
1.577
1.591
1.602
1.613
1.624
1.631
1.638
1.646
1.653
1.660
1.667
1.675
1.682
1.689
1.693
1.696
1.704
1.707
1.707
1.711
1.718
1.725
1.732
1.747
1.758
1.765
1.772
1.779
1.783
1.779
1.769
1.747
1.722
1.700
1.678
1.664
1.657
1.657
1.664
1.671
1.682
1.693
1.704
1.711
1.711
1.714
1.714
1.718
1.718
1.722
1.722
1.722
1.725
1.725
1.722
1.725
1.725
1.729
1.732
1.732
1.732
1.729
1.729
1.732
1.729
1.729
1.725
1.729
1.732
1.736
1.736
1.732
1.732
1.736
1.743
1.747
1.754
1.769
1.779
1.794
1.812
1.826
1.845
1.859
1.874
1.888
1.892
1.895
1.892
1.881
1.863
1.841
1.826
1.819
1.819
1.816
1.812
1.801
1.798
1.790
1.783
1.772
1.761
1.747
1.740
1.736
1.729
1.725
1.711
1.704
1.700
1.700
1.707
1.714
1.725
1.736
1.747
1.761
1.772
1.779
1.787
1.794
1.805
1.812
1.816
1.819
1.819
1.816
1.812
1.798
1.779
1.761
1.736
1.707
1.675
1.642
1.609
1.577
1.552
1.530
1.501
1.476
1.447
1.421
1.400
1.382
1.367
1.353
1.353
1.360
1.382
1.403
1.436
1.468
1.505
1.534
1.555
1.573
1.588
1.609
1.642
1.678
1.700
1.718
1.729
1.732
1.732
1.725
1.718
1.704
1.689
1.685
1.678
1.667
1.660
1.657
1.653
1.653
1.653
1.653
1.646
1.642
1.642
1.649
1.664
1.678
1.693
1.707
1.725
1.751
1.783
1.812
1.845
1.877
1.902
1.928
1.953
1.971
1.978
1.982
1.975
1.964
1.957
1.953
1.949
1.946
1.942
1.942
1.942
1.942
1.939
1.939
1.931
1.924
1.917
1.913
1.906
1.902
1.902
1.902
1.899
1.888
1.874
1.855
1.834
1.812
1.790
1.761
1.743
1.740
1.761
1.826
1.935
2.112
2.333
2.572
2.814
3.035
3.194
3.284
3.320
3.335
3.364
3.403
3.429
3.411
3.349
3.259
3.118
2.955
2.778
2.615
2.470
2.358
2.271
2.213
2.174
2.156
2.141
2.134
2.134
2.127
2.116
2.094
2.065
2.029
1.996
1.968
1.946
1.931
1.917
1.906
1.895
1.888
1.884
1.881
1.877
1.870
1.859
1.845
1.823
1.801
1.787
1.772
1.772
1.776
1.787
1.801
1.816
1.826
1.834
1.837
1.834
1.830
1.826
1.823
1.819
1.816
1.812
1.805
1.794
1.776
1.751
1.725
1.700
1.682
1.664
1.649
1.638
1.624
1.609
1.599
1.599
1.609
1.635
1.664
1.696
1.725
1.747
1.765
1.783
1.798
1.816
1.830
1.834
1.837
1.834
1.826
1.819
1.808
1.805
1.808
1.816
1.834
1.863
1.881
1.906
1.928
1.949
1.960
1.971
1.975
1.975
1.978
1.989
1.996
2.007
2.022
2.040
2.062
2.094
2.123
2.156
2.181
2.206
2.232
2.253
2.279
2.308
2.336
2.362
2.383
2.394
2.402
2.405
2.409
2.409
2.402
2.394
2.383
2.373
2.362
2.344
2.326
2.308
2.286
2.261
2.239
2.206
2.177
2.148
2.119
2.094
2.072
2.054
2.040
2.018
1.996
1.971
1.939
1.910
1.877
1.845
1.816
1.798
1.783
1.776
1.769
1.761
1.751
1.736
1.725
1.718
1.711
1.707
1.704
1.700
1.696
1.689
1.685
1.678
1.667
1.660
1.657
1.657
1.657
1.660
1.667
1.675
1.678
1.685
1.685
1.693
1.700
1.707
1.714
1.718
1.722
1.722
1.725
1.722
1.711
1.693
1.671
1.649
1.631
1.613
1.609
1.606
1.606
1.606
1.609
1.617
1.624
1.635
1.646
1.653
1.657
1.660
1.664
1.667
1.671
1.682
1.696
1.711
1.729
1.747
1.761
1.776
1.779
1.779
1.776
1.776
1.779
1.787
1.798
1.808
1.816
1.823
1.823
1.823
1.819
1.823
1.826
1.837
1.845
1.852
1.855
1.863
1.870
1.877
1.888
1.895
1.902
1.910
1.917
1.917
1.921
1.928
1.935
1.942
1.949
1.953
1.957
1.957
1.957
1.957
1.957
1.964
1.971
1.978
1.989
1.996
2.004
2.007
2.011
2.011
2.007
1.996
1.989
1.982
1.975
1.975
1.978
1.978
1.982
1.986
1.989
1.993
1.996
2.000
2.004
2.011
2.018
2.025
2.033
2.036
2.043
2.051
2.047
2.051
2.054
2.054
2.054
2.054
2.047
2.040
2.036
2.036
2.040
2.043
2.051
2.051
2.054
2.062
2.072
2.083
2.094
2.105
2.116
2.130
2.130
2.127
2.123
2.109
2.094
2.076
2.062
2.047
2.036
2.022
2.011
1.996
1.989
1.986
1.989
1.996
2.007
2.018
2.029
2.043
2.054
2.058
2.058
2.054
2.043
2.025
2.007
1.993
1.982
1.971
1.968
1.971
1.968
1.971
1.971
1.971
1.971
1.975
1.975
1.975
1.975
1.978
1.978
1.978
1.975
1.975
1.978
1.982
1.986
1.993
2.000
2.007
2.011
2.018
2.022
2.033
2.040
2.051
2.065
2.080
2.094
2.109
2.119
2.127
2.123
2.112
2.091
2.062
2.018
1.968
1.902
1.830
1.758
1.693
1.653
1.664
1.740
1.906
2.127
2.373
2.615
2.832
2.984
3.063
3.078
3.063
3.038
3.013
2.962
2.865
2.716
2.532
2.333
2.145
1.996
1.913
1.892
1.924
2.004
2.116
2.246
2.387
2.521
2.637
2.716
2.745
2.731
2.684
2.600
2.503
2.402
2.311
2.232
2.163
2.112
2.065
2.025
1.993
1.968
1.946
1.931
1.917
1.902
1.884
1.866
1.845
1.823
1.794
1.765
1.732
1.704
1.678
1.660
1.649
1.649
1.660
1.682
1.700
1.718
1.729
1.736
1.743
1.754
1.765
1.776
1.790
1.808
1.826
1.848
1.863
1.877
1.892
1.906
1.910
1.910
1.902
1.895
1.888
1.881
1.881
1.881
1.881
1.874
1.870
1.870
1.866
1.859
1.855
1.855
1.859
1.866
1.877
1.888
1.895
1.910
1.924
1.939
1.949
1.953
1.953
1.953
1.953
1.960
1.960
1.957
1.960
1.960
1.971
1.986
2.000
2.015
2.025
2.033
2.040
2.043
2.051
2.058
2.065
2.076
2.083
2.094
2.105
2.116
2.127
2.141
2.148
2.156
2.159
2.166
2.170
2.170
2.163
2.152
2.141
2.127
2.123
2.112
2.105
2.101
2.091
2.076
2.062
2.047
2.036
2.022
2.007
1.989
1.964
1.939
1.913
1.888
1.859
1.837
1.816
1.798
1.779
1.761
1.747
1.725
1.707
1.689
1.667
1.649
1.638
1.628
1.617
1.609
1.606
1.602
1.599
1.595
1.595
1.591
1.591
1.591
1.595
1.595
1.591
1.591
1.591
1.588
1.581
1.577
1.577
1.577
1.577
1.577
1.581
1.584
1.588
1.584
1.588
1.595
1.599
1.599
1.602
1.602
1.599
1.584
1.573
1.570
1.566
1.570
1.573
1.577
1.584
1.591
1.595
1.602
1.613
1.620
1.628
1.628
1.631
1.638
1.646
1.653
1.653
1.653
1.653
1.653
1.649
1.646
1.638
1.638
1.638
1.642
1.649
1.657
1.664
1.671
1.675
1.675
1.667
1.660
1.657
1.660
1.671
1.685
1.696
1.704
1.711
1.714
1.714
1.714
1.714
1.714
1.707
1.704
1.700
1.700
1.704
1.711
1.714
1.718
1.718
1.718
1.714
1.714
1.711
1.711
1.707
1.707
1.707
1.711
1.722
1.729
1.729
1.725
1.718
1.711
1.704
1.700
1.700
1.700
1.700
1.700
1.696
1.700
1.700
1.700
1.700
1.696
1.693
1.693
1.693
1.693
1.689
1.689
1.689
1.696
1.704
1.711
1.718
1.725
1.729
1.729
1.729
1.729
1.725
1.725
1.722
1.718
1.714
1.718
1.722
1.725
1.729
1.732
1.729
1.729
1.729
1.729
1.729
1.725
1.722
1.714
1.707
1.700
1.704
1.704
1.711
1.722
1.732
1.743
1.754
1.761
1.765
1.769
1.772
1.779
1.783
1.779
1.776
1.769
1.761
1.754
1.754
1.754
1.754
1.761
1.765
1.772
1.779
1.779
1.779
1.772
1.765
1.751
1.740
1.729
1.725
1.722
1.722
1.725
1.729
1.732
1.729
1.725
1.722
1.722
1.729
1.740
1.743
1.743
1.743
1.743
1.743
1.743
1.747
1.747
1.743
1.740
1.740
1.736
1.740
1.740
1.740
1.736
1.736
1.732
1.732
1.729
1.729
1.732
1.736
1.743
1.751
1.754
1.747
1.732
1.714
1.689
1.657
1.624
1.581
1.541
1.523
1.523
1.566
1.660
1.816
2.029
2.279
2.553
2.839
3.085
3.262
3.371
3.447
3.512
3.555
3.577
3.570
3.526
3.432
3.288
3.078
2.850
2.633
2.463
2.333
2.239
2.170
2.119
2.072
2.029
1.993
1.960
1.931
1.906
1.881
1.852
1.826
1.805
1.779
1.754
1.729
1.707
1.678
1.657
1.635
1.617
1.602
1.591
1.588
1.581
1.573
1.573
1.566
1.562
1.559
1.555
1.548
1.537
1.526
1.519
1.515
1.515
1.523
1.523
1.530
1.541
1.555
1.570
1.581
1.588
1.591
1.595
1.595
1.599
1.602
1.609
1.617
1.620
1.628
1.631
1.628
1.620
1.609
1.606
1.609
1.606
1.606
1.609
1.602
1.591
1.584
1.584
1.591
1.602
1.613
1.624
1.635
1.642
1.653
1.664
1.675
1.682
1.682
1.685
1.685
1.689
1.689
1.689
1.700
1.711
1.722
1.732
1.740
1.747
1.743
1.736
1.725
1.722
1.722
1.725
1.729
1.740
1.754
1.776
1.794
1.816
1.834
1.848
1.863
1.877
1.888
1.902
1.913
1.924
1.935
1.949
1.957
1.968
1.975
1.978
1.986
1.989
1.993
1.993
1.996
1.996
2.000
2.004
2.007
2.011
2.015
2.015
2.004
1.986
1.957
1.928
1.906
1.888
1.877
1.870
1.863
1.855
1.852
1.848
1.845
1.837
1.830
1.823
1.816
1.812
1.805
1.798
1.794
1.790
1.790
1.790
1.790
1.794
1.798
1.808
1.816
1.826
1.830
1.834
1.841
1.852
1.863
1.874
1.881
1.881
1.884
1.881
1.877
1.863
1.845
1.830
1.816
1.812
1.812
1.816
1.816
1.808
1.794
1.783
1.761
1.740
1.714
1.689
1.667
1.657
1.653
1.653
1.660
1.667
1.678
1.682
1.685
1.689
1.685
1.682
1.671
1.664
1.660
1.657
1.660
1.664
1.664
1.671
1.675
1.675
1.671
1.667
1.660
1.653
1.646
1.638
1.628
1.620
1.609
1.606
1.599
1.591
1.584
1.570
1.552
1.537
1.526
1.512
1.505
1.501
1.497
1.497
1.501
1.501
1.501
1.497
1.497
1.494
1.490
1.487
1.483
1.483
1.483
1.487
1.490
1.497
1.505
1.508
1.519
1.530
1.548
1.573
1.606
1.635
1.657
1.667
1.675
1.685
1.696
1.707
1.718
1.729
1.743
1.754
1.761
1.761
1.761
1.758
1.758
1.761
1.761
1.758
1.758
1.761
1.772
1.787
1.805
1.826
1.848
1.870
1.899
1.928
1.957
1.989
2.022
2.051
2.069
2.072
2.062
2.033
1.993
1.953
1.902
1.859
1.826
1.805
1.801
1.801
1.808
1.819
1.830
1.845
1.855
1.863
1.866
1.863
1.863
1.859
1.852
1.845
1.841
1.834
1.826
1.823
1.816
1.805
1.801
1.798
1.794
1.798
1.805
1.812
1.830
1.852
1.866
1.881
1.895
1.910
1.924
1.939
1.942
1.946
1.949
1.953
1.957
1.949
1.942
1.935
1.928
1.924
1.924
1.924
1.928
1.928
1.931
1.935
1.935
1.939
1.942
1.939
1.931
1.921
1.913
1.902
1.899
1.888
1.881
1.866
1.852
1.841
1.830
1.826
1.830
1.837
1.852
1.863
1.870
1.874
1.870
1.870
1.874
1.884
1.888
1.884
1.874
1.863
1.848
1.837
1.823
1.812
1.808
1.808
1.812
1.819
1.826
1.830
1.841
1.852
1.859
1.859
1.859
1.859
1.852
1.845
1.837
1.823
1.801
1.776
1.740
1.700
1.660
1.638
1.649
1.707
1.826
2.022
2.261
2.514
2.767
2.987
3.147
3.219
3.248
3.262
3.291
3.338
3.360
3.342
3.277
3.165
3.016
2.857
2.702
2.572
2.470
2.394
2.336
2.286
2.242
2.203
2.163
2.123
2.083
2.036
1.996
1.960
1.928
1.906
1.888
1.877
1.870
1.866
1.866
1.863
1.866
1.863
1.863
1.859
1.859
1.855
1.855
1.855
1.855
1.859
1.859
1.863
1.870
1.874
1.877
1.881
1.884
1.888
1.892
1.892
1.899
1.899
1.899
1.899
1.902
1.906
1.910
1.910
1.910
1.910
1.906
1.902
1.895
1.884
1.877
1.874
1.877
1.881
1.884
1.888
1.892
1.895
1.899
1.895
1.892
1.892
1.888
1.888
1.892
1.895
1.902
1.910
1.917
1.924
1.924
1.928
1.931
1.935
1.939
1.946
1.953
1.960
1.971
1.982
1.989
1.996
2.004
2.007
2.011
2.018
2.029
2.040
2.047
2.058
2.062
2.065
2.065
2.065
2.069
2.069
2.072
2.072
2.076
2.083
2.087
2.098
2.101
2.105
2.101
2.098
2.094
2.091
2.091
2.091
2.094
2.094
2.094
2.094
2.094
2.098
2.094
2.087
2.080
2.069
2.058
2.051
2.043
2.029
2.007
1.989
1.964
1.942
1.917
1.895
1.870
1.845
1.816
1.787
1.751
1.711
1.667
1.624
1.584
1.548
1.526
1.515
1.512
1.523
1.541
1.552
1.570
1.581
1.599
1.617
1.638
1.660
1.682
1.707
1.729
1.754
1.769
1.779
1.787
1.790
1.787
1.787
1.783
1.779
1.783
1.783
1.790
1.787
1.787
1.783
1.779
1.772
1.761
1.754
1.747
1.740
1.740
1.743
1.743
1.743
1.747
1.747
1.743
1.740
1.736
1.732
1.729
1.732
1.732
1.736
1.740
1.740
1.740
1.743
1.743
1.743
1.743
1.740
1.743
1.736
1.736
1.732
1.725
1.718
1.711
1.707
1.704
1.704
1.704
1.711
1.711
1.722
1.729
1.736
1.743
1.747
1.751
1.754
1.754
1.758
1.758
1.761
1.765
1.769
1.776
1.779
1.783
1.787
1.790
1.790
1.794
1.794
1.790
1.787
1.783
1.776
1.772
1.772
1.769
1.765
1.761
1.761
1.758
1.754
1.754
1.754
1.751
1.743
1.736
1.725
1.714
1.704
1.700
1.689
1.682
1.675
1.675
1.671
1.675
1.682
1.689
1.696
1.693
1.689
1.682
1.678
1.675
1.678
1.678
1.682
1.685
1.693
1.696
1.707
1.718
1.729
1.743
1.754
1.769
1.779
1.790
1.798
1.801
1.801
1.798
1.798
1.790
1.787
1.787
1.787
1.790
1.790
1.790
1.794
1.798
1.801
1.794
1.790
1.783
1.776
1.772
1.772
1.772
1.776
1.779
1.783
1.787
1.787
1.790
1.794
1.798
1.798
1.798
1.798
1.801
1.805
1.812
1.826
1.834
1.855
1.874
1.892
1.906
1.917
1.924
1.928
1.931
1.928
1.928
1.924
1.921
1.928
1.935
1.949
1.968
1.982
2.000
2.022
2.036
2.043
2.040
2.036
2.029
2.018
2.011
2.004
1.996
1.989
1.993
2.000
2.000
1.996
1.986
1.978
1.975
1.975
1.978
1.986
1.993
2.000
2.007
2.011
2.007
2.000
1.993
1.986
1.978
1.975
1.971
1.964
1.960
1.960
1.957
1.960
1.968
1.971
1.975
1.971
1.968
1.964
1.957
1.949
1.946
1.935
1.928
1.924
1.913
1.899
1.877
1.852
1.819
1.783
1.740
1.700
1.657
1.635
1.653
1.725
1.877
2.105
2.369
2.640
2.893
3.107
3.244
3.299
3.309
3.306
3.317
3.335
3.324
3.273
3.168
3.024
2.857
2.684
2.543
2.427
2.340
2.279
2.228
2.188
2.148
2.112
2.072
2.029
1.982
1.931
1.888
1.852
1.823
1.798
1.779
1.769
1.758
1.754
1.758
1.751
1.743
1.732
1.722
1.714
1.711
1.711
1.714
1.718
1.725
1.732
1.736
1.740
1.743
1.747
1.751
1.751
1.754
1.754
1.754
1.754
1.754
1.747
1.743
1.747
1.751
1.754
1.758
1.761
1.765
1.769
1.776
1.783
1.787
1.794
1.801
1.805
1.808
1.812
1.812
1.808
1.805
1.801
1.798
1.798
1.798
1.801
1.808
1.816
1.823
1.830
1.834
1.841
1.845
1.848
1.855
1.863
1.870
1.874
1.877
1.884
1.888
1.892
1.899
1.906
1.910
1.921
1.931
1.942
1.953
1.964
1.975
1.986
1.993
2.007
2.018
2.022
2.025
2.022
2.022
2.018
2.018
2.025
2.033
2.040
2.051
2.062
2.069
2.076
2.083
2.091
2.091
2.094
2.094
2.094
2.094
2.101
2.101
2.101
2.101
2.091
2.083
2.069
2.058
2.047
2.040
2.029
2.015
1.996
1.978
1.960
1.942
1.921
1.899
1.884
1.866
1.852
1.841
1.830
1.816
1.798
1.779
1.758
1.732
1.711
1.693
1.685
1.678
1.678
1.678
1.675
1.671
1.667
1.664
1.657
1.653
1.649
1.646
1.638
1.638
1.638
1.638
1.642
1.646
1.646
1.649
1.653
1.657
1.660
1.664
1.664
1.660
1.653
1.638
1.628
1.624
1.624
1.624
1.624
1.624
1.624
1.628
1.628
1.631
1.635
1.642
1.649
1.657
1.664
1.667
1.671
1.675
1.678
1.675
1.675
1.675
1.678
1.682
1.689
1.693
1.696
1.696
1.696
1.693
1.689
1.689
1.685
1.685
1.678
1.675
1.675
1.675
1.678
1.682
1.689
1.689
1.693
1.696
1.696
1.696
1.696
1.696
1.700
1.700
1.707
1.707
1.711
1.718
1.725
1.732
1.740
1.743
1.743
1.743
1.740
1.743
1.743
1.743
1.740
1.743
1.740
1.740
1.736
1.736
1.736
1.740
1.743
1.743
1.740
1.736
1.732
1.732
1.736
1.740
1.747
1.751
1.751
1.754
1.758
1.765
1.772
1.772
1.761
1.754
1.747
1.747
1.747
1.747
1.747
1.747
1.743
1.743
1.740
1.740
1.743
1.747
1.751
1.758
1.769
1.776
1.783
1.790
1.790
1.787
1.783
1.776
1.772
1.769
1.769
1.769
1.761
1.761
1.758
1.758
1.758
1.765
1.772
1.779
1.787
1.790
1.798
1.794
1.794
1.794
1.794
1.794
1.798
1.798
1.798
1.798
1.794
1.798
1.794
1.790
1.790
1.790
1.787
1.787
1.787
1.783
1.787
1.790
1.790
1.787
1.787
1.783
1.787
1.790
1.790
1.790
1.790
1.790
1.790
1.790
1.783
1.783
1.779
1.779
1.776
1.772
1.772
1.776
1.779
1.783
1.783
1.790
1.798
1.808
1.819
1.830
1.834
1.841
1.845
1.845
1.848
1.845
1.841
1.837
1.834
1.830
1.826
1.823
1.823
1.823
1.830
1.837
1.841
1.845
1.848
1.848
1.848
1.845
1.845
1.841
1.837
1.834
1.834
1.826
1.819
1.819
1.816
1.816
1.819
1.823
1.826
1.830
1.837
1.841
1.841
1.834
1.834
1.826
1.823
1.823
1.819
1.819
1.816
1.819
1.819
1.819
1.819
1.823
1.826
1.834
1.841
1.845
1.845
1.845
1.848
1.845
1.845
1.841
1.845
1.845
1.845
1.841
1.834
1.823
1.808
1.790
1.765
1.736
1.700
1.657
1.620
1.602
1.620
1.693
1.819
2.015
2.253
2.510
2.781
3.038
3.241
3.360
3.425
3.476
3.519
3.552
3.559
3.530
3.450
3.327
3.157
2.944
2.723
2.525
2.362
2.246
2.166
2.119
2.080
2.040
2.004
1.964
1.928
1.892
1.855
1.826
1.801
1.783
1.772
1.761
1.758
1.751
1.751
1.747
1.740
1.732
1.722
1.714
1.707
1.704
1.696
1.696
1.700
1.704
1.707
1.711
1.711
1.711
1.711
1.711
1.711
1.711
1.711
1.718
1.722
1.729
1.732
1.732
1.732
1.729
1.729
1.732
1.732
1.736
1.736
1.740
1.740
1.743
1.747
1.751
1.754
1.761
1.765
1.761
1.765
1.765
1.769
1.776
1.779
1.783
1.787
1.790
1.790
1.790
1.794
1.794
1.794
1.794
1.798
1.801
1.808
1.819
1.826
1.834
1.841
1.848
1.859
1.866
1.877
1.888
1.902
1.917
1.928
1.935
1.942
1.942
1.949
1.953
1.960
1.964
1.971
1.975
1.975
1.975
1.978
1.989
1.993
2.004
2.015
2.022
2.029
2.033
2.040
2.047
2.054
2.058
2.062
2.058
2.058
2.054
2.051
2.047
2.043
2.036
2.029
2.022
2.015
2.004
1.993
1.986
1.975
1.957
1.942
1.921
1.902
1.884
1.866
1.855
1.837
1.819
1.805
1.790
1.776
1.758
1.743
1.732
1.718
1.704
1.696
1.685
1.682
1.675
1.671
1.667
1.664
1.660
1.660
1.660
1.660
1.660
1.660
1.657
1.653
1.646
1.638
1.631
1.631
1.631
1.635
1.635
1.638
1.638
1.638
1.638
1.642
1.642
1.646
1.646
1.649
1.649
1.649
1.646
1.642
1.638
1.642
1.646
1.646
1.649
1.653
1.660
1.664
1.671
1.675
1.675
1.675
1.675
1.675
1.675
1.678
1.682
1.685
1.693
1.700
1.700
1.700
1.700
1.700
1.700
1.696
1.693
1.693
1.693
1.693
1.700
1.700
1.707
1.711
1.718
1.725
1.732
1.736
1.743
1.747
1.743
1.740
1.729
1.722
1.718
1.714
1.714
1.718
1.725
1.732
1.740
1.747
1.751
1.751
1.754
1.754
1.754
1.754
1.754
1.754
1.758
1.758
1.761
1.761
1.761
1.761
1.765
1.765
1.765
1.769
1.769
1.765
1.769
1.772
1.776
1.779
1.779
1.783
1.783
1.783
1.779
1.779
1.779
1.779
1.787
1.783
1.783
1.783
1.783
1.783
1.783
1.783
1.783
1.787
1.787
1.794
1.794
1.794
1.794
1.790
1.790
1.790
1.798
1.801
1.805
1.808
1.812
1.808
1.808
1.808
1.808
1.812
1.812
1.812
1.812
1.816
1.816
1.816
1.808
1.808
1.805
1.801
1.801
1.801
1.805
1.808
1.812
1.819
1.819
1.823
1.826
1.830
1.830
1.826
1.823
1.819
1.816
1.816
1.819
1.819
1.823
1.826
1.834
1.837
1.837
1.841
1.841
1.841
1.845
1.848
1.841
1.837
1.834
1.834
1.837
1.837
1.841
1.841
1.841
1.841
1.841
1.841
1.841
1.845
1.845
1.845
1.841
1.841
1.837
1.841
1.845
1.845
1.841
1.841
1.841
1.841
1.841
1.845
1.848
1.855
1.859
1.866
1.870
1.870
1.870
1.863
1.859
1.852
1.845
1.845
1.841
1.841
1.845
1.841
1.841
1.841
1.837
1.834
1.834
1.830
1.830
1.826
1.826
1.826
1.826
1.830
1.834
1.837
1.848
1.863
1.877
1.892
1.902
1.910
1.913
1.910
1.906
1.902
1.895
1.892
1.884
1.881
1.874
1.870
1.874
1.881
1.881
1.884
1.892
1.899
1.899
1.902
1.902
1.895
1.888
1.884
1.874
1.866
1.863
1.859
1.859
1.859
1.859
1.863
1.863
1.863
1.866
1.866
1.870
1.870
1.870
1.870
1.866
1.866
1.863
1.863
1.866
1.874
1.874
1.877
1.877
1.877
1.877
1.881
1.881
1.884
1.884
1.884
1.884
1.881
1.881
1.877
1.877
1.881
1.881
1.884
1.884
1.884
1.881
1.870
1.852
1.826
1.794
1.758
1.711
1.675
1.649
1.660
1.714
1.826
2.011
2.242
2.503
2.767
3.016
3.204
3.309
3.356
3.382
3.414
3.454
3.465
3.436
3.367
3.255
3.100
2.915
2.727
2.553
2.409
2.300
2.221
2.163
2.123
2.091
2.062
2.033
2.004
1.971
1.939
1.910
1.884
1.859
1.834
1.812
1.790
1.772
1.761
1.754
1.754
1.761
1.769
1.772
1.772
1.772
1.765
1.761
1.761
1.765
1.765
1.765
1.765
1.761
1.761
1.761
1.761
1.765
1.769
1.772
1.776
1.779
1.783
1.783
1.787
1.787
1.779
1.779
1.779
1.783
1.790
1.798
1.805
1.812
1.812
1.812
1.816
1.816
1.816
1.812
1.808
1.805
1.808
1.808
1.816
1.823
1.830
1.834
1.834
1.837
1.841
1.841
1.845
1.852
1.855
1.859
1.866
1.870
1.877
1.881
1.892
1.899
1.910
1.917
1.928
1.935
1.942
1.946
1.953
1.953
1.957
1.968
1.978
1.989
1.996
2.007
2.018
2.029
2.036
2.047
2.047
2.051
2.051
2.054
2.051
2.051
2.051
2.051
2.058
2.065
2.076
2.080
2.083
2.087
2.091
2.087
2.087
2.083
2.083
2.080
2.080
2.080
2.072
2.065
2.054
2.043
2.033
2.018
2.000
1.978
1.960
1.942
1.928
1.910
1.892
1.874
1.855
1.841
1.826
1.808
1.790
1.776
1.761
1.743
1.729
1.714
1.707
1.700
1.693
1.689
1.689
1.689
1.689
1.685
1.678
1.667
1.660
1.653
1.649
1.649
1.653
1.657
1.660
1.660
1.664
1.664
1.664
1.664
1.664
1.664
1.664
1.660
1.660
1.657
1.657
1.657
1.653
1.657
1.664
1.671
1.682
1.693
1.704
1.711
1.714
1.714
1.711
1.704
1.693
1.689
1.685
1.689
1.693
1.700
1.707
1.714
1.722
1.729
1.729
1.722
1.718
1.711
1.711
1.711
1.711
1.714
1.718
1.725
1.729
1.736
1.740
1.743
1.747
1.754
1.758
1.761
1.769
1.772
1.776
1.772
1.769
1.765
1.761
1.758
1.758
1.758
1.761
1.765
1.772
1.779
1.779
1.779
1.776
1.776
1.779
1.779
1.783
1.787
1.787
1.787
1.794
1.794
1.794
1.794
1.787
1.783
1.779
1.779
1.783
1.783
1.787
1.790
1.794
1.801
1.805
1.808
1.812
1.812
1.816
1.819
1.819
1.826
1.830
1.830
1.830
1.830
1.830
1.834
1.830
1.826
1.823
1.823
1.823
1.819
1.816
1.816
1.812
1.808
1.812
1.812
1.812
1.816
1.819
1.826
1.826
1.826
1.826
1.826
1.823
1.823
1.823
1.823
1.823
1.823
1.826
1.826
1.830
1.834
1.837
1.841
1.845
1.845
1.845
1.845
1.845
1.848
1.848
1.848
1.845
1.837
1.830
1.826
1.826
1.830
1.837
1.841
1.845
1.841
1.845
1.845
1.848
1.852
1.855
1.859
1.863
1.866
1.870
1.866
1.866
1.866
1.863
1.866
1.866
1.870
1.870
1.866
1.863
1.863
1.855
1.852
1.848
1.848
1.848
1.852
1.855
1.866
1.874
1.881
1.884
1.888
1.884
1.881
1.877
1.870
1.866
1.863
1.859
1.859
1.855
1.852
1.848
1.848
1.852
1.855
1.855
1.855
1.859
1.855
1.852
1.848
1.852
1.852
1.859
1.866
1.877
1.884
1.892
1.899
1.902
1.902
1.906
1.906
1.906
1.906
1.910
1.910
1.910
1.913
1.917
1.917
1.917
1.917
1.906
1.906
1.906
1.910
1.910
1.910
1.910
1.910
1.906
1.899
1.892
1.881
1.874
1.870
1.866
1.863
1.866
1.866
1.870
1.870
1.874
1.877
1.877
1.881
1.884
1.888
1.888
1.892
1.895
1.895
1.895
1.899
1.899
1.895
1.895
1.899
1.902
1.906
1.906
1.910
1.910
1.906
1.906
1.902
1.899
1.895
1.895
1.895
1.895
1.895
1.895
1.888
1.877
1.866
1.845
1.819
1.787
1.754
1.714
1.678
1.646
1.642
1.678
1.779
1.960
2.210
2.485
2.749
2.991
3.165
3.270
3.309
3.309
3.313
3.335
3.364
3.349
3.291
3.179
3.031
2.861
2.695
2.553
2.438
2.355
2.293
2.250
2.210
2.177
2.141
2.105
2.069
2.033
1.996
1.957
1.917
1.881
1.848
1.823
1.808
1.798
1.798
1.798
1.798
1.798
1.798
1.801
1.801
1.798
1.794
1.790
1.787
1.787
1.790
1.790
1.794
1.794
1.794
1.794
1.790
1.790
1.787
1.783
1.783
1.779
1.779
1.783
1.787
1.790
1.794
1.798
1.801
1.805
1.808
1.812
1.812
1.812
1.808
1.808
1.808
1.816
1.816
1.823
1.826
1.830
1.837
1.845
1.855
1.863
1.866
1.866
1.866
1.863
1.863
1.863
1.866
1.870
1.874
1.881
1.888
1.892
1.899
1.906
1.906
1.910
1.921
1.928
1.939
1.946
1.957
1.964
1.975
1.986
1.993
2.000
2.007
2.015
2.025
2.036
2.047
2.054
2.062
2.065
2.072
2.076
2.080
2.087
2.094
2.098
2.101
2.105
2.105
2.109
2.112
2.116
2.112
2.116
2.116
2.116
2.119
2.123
2.123
2.116
2.109
2.098
2.091
2.076
2.062
2.047
2.033
2.015
2.000
1.982
1.964
1.946
1.931
1.913
1.895
1.874
1.852
1.830
1.808
1.787
1.772
1.758
1.743
1.732
1.714
1.700
1.682
1.671
1.657
1.649
1.642
1.638
1.635
1.628
1.628
1.620
1.617
1.617
1.620
1.624
1.624
1.628
1.628
1.624
1.620
1.620
1.613
1.609
1.609
1.609
1.609
1.609
1.609
1.613
1.620
1.628
1.635
1.642
1.646
1.649
1.649
1.646
1.642
1.638
1.638
1.642
1.649
1.657
1.660
1.664
1.660
1.660
1.660
1.660
1.664
1.667
1.671
1.675
1.682
1.685
1.685
1.689
1.689
1.689
1.693
1.693
1.689
1.689
1.689
1.689
1.696
1.700
1.704
1.707
1.711
1.718
1.722
1.722
1.725
1.725
1.722
1.714
1.711
1.707
1.707
1.707
1.714
1.722
1.725
1.729
1.732
1.732
1.732
1.729
1.729
1.725
1.729
1.729
1.732
1.740
1.743
1.747
1.743
1.747
1.747
1.751
1.751
1.751
1.751
1.751
1.751
1.758
1.754
1.754
1.751
1.751
1.751
1.754
1.758
1.761
1.765
1.769
1.772
1.769
1.769
1.765
1.761
1.761
1.761
1.769
1.772
1.779
1.779
1.783
1.783
1.779
1.772
1.769
1.765
1.765
1.765
1.769
1.769
1.772
1.776
1.776
1.776
1.776
1.776
1.776
1.776
1.779
1.779
1.783
1.787
1.790
1.790
1.794
1.790
1.790
1.787
1.787
1.787
1.787
1.787
1.787
1.790
1.790
1.790
1.790
1.790
1.790
1.790
1.787
1.787
1.783
1.787
1.787
1.787
1.790
1.790
1.790
1.790
1.790
1.790
1.790
1.794
1.801
1.805
1.808
1.808
1.808
1.808
1.805
1.805
1.801
1.801
1.798
1.798
1.790
1.790
1.787
1.787
1.790
1.794
1.798
1.805
1.808
1.812
1.816
1.812
1.812
1.808
1.805
1.801
1.798
1.798
1.794
1.794
1.794
1.794
1.794
1.794
1.798
1.801
1.801
1.801
1.801
1.801
1.798
1.794
1.790
1.787
1.787
1.794
1.798
1.808
1.823
1.834
1.845
1.848
1.855
1.855
1.852
1.855
1.859
1.859
1.863
1.863
1.859
1.859
1.852
1.852
1.845
1.841
1.837
1.837
1.837
1.841
1.845
1.841
1.837
1.830
1.826
1.819
1.812
1.805
1.805
1.805
1.805
1.805
1.808
1.808
1.808
1.808
1.805
1.801
1.805
1.808
1.812
1.819
1.823
1.826
1.830
1.834
1.834
1.830
1.830
1.826
1.823
1.823
1.823
1.823
1.823
1.826
1.830
1.830
1.834
1.837
1.837
1.837
1.837
1.841
1.841
1.841
1.837
1.830
1.812
1.794
1.769
1.736
1.700
1.660
1.617
1.588
1.581
1.617
1.704
1.855
2.076
2.333
2.608
2.883
3.132
3.309
3.403
3.450
3.490
3.523
3.548
3.544
3.497
3.400
3.252
3.060
2.843
2.633
2.452
2.318
2.224
2.156
2.109
2.076
2.047
2.015
1.978
1.939
1.902
1.866
1.834
1.801
1.776
1.754
1.743
1.732
1.729
1.725
1.718
1.711
1.704
1.700
1.696
1.696
1.693
1.696
1.700
1.704
1.707
1.707
1.707
1.704
1.707
1.704
1.707
1.707
1.704
1.707
1.707
1.711
1.711
1.714
1.714
1.718
1.722
1.722
1.725
1.722
1.722
1.722
1.725
1.725
1.732
1.736
1.743
1.743
1.743
1.743
1.747
1.747
1.751
1.754
1.761
1.769
1.776
1.776
1.779
1.783
1.783
1.783
1.783
1.783
1.787
1.790
1.794
1.801
1.801
1.808
1.812
1.819
1.826
1.837
1.848
1.855
1.866
1.874
1.888
1.892
1.899
1.906
1.917
1.928
1.935
1.946
1.953
1.957
1.960
1.964
1.968
1.971
1.975
1.982
1.986
1.993
2.000
2.007
2.015
2.022
2.033
2.036
2.043
2.047
2.047
2.043
2.040
2.036
2.036
2.033
2.033
2.025
2.011
2.000
1.986
1.975
1.960
1.946
1.939
1.928
1.917
1.906
1.888
1.870
1.852
1.834
1.816
1.798
1.779
1.765
1.751
1.736
1.725
1.707
1.689
1.675
1.657
1.642
1.631
1.624
1.620
1.620
1.624
1.628
1.628
1.624
1.624
1.620
1.617
1.617
1.617
1.613
1.609
1.602
1.602
1.595
1.595
1.599
1.602
1.606
1.609
1.613
1.620
1.624
1.631
1.631
1.631
1.628
1.624
1.628
1.628
1.628
1.631
1.635
1.638
1.642
1.642
1.642
1.642
1.638
1.638
1.638
1.638
1.642
1.646
1.653
1.664
1.667
1.667
1.671
1.671
1.667
1.671
1.675
1.678
1.682
1.689
1.696
1.696
1.700
1.700
1.700
1.700
1.700
1.700
1.700
1.704
1.704
1.707
1.711
1.714
1.718
1.718
1.718
1.718
1.722
1.722
1.725
1.729
1.732
1.732
1.732
1.732
1.732
1.732
1.729
1.729
1.725
1.729
1.736
1.743
1.743
1.743
1.740
1.740
1.740
1.740
1.743
1.743
1.743
1.743
1.740
1.736
1.736
1.740
1.743
1.751
1.758
1.761
1.765
1.765
1.765
1.761
1.761
1.761
1.761
1.761
1.761
1.761
1.761
1.765
1.769
1.772
1.776
1.779
1.783
1.787
1.787
1.783
1.783
1.779
1.779
1.779
1.783
1.779
1.779
1.776
1.776
1.772
1.772
1.772
1.776
1.779
1.783
1.787
1.787
1.787
1.790
1.794
1.798
1.801
1.801
1.805
1.805
1.812
1.812
1.812
1.805
1.801
1.798
1.794
1.794
1.798
1.801
1.805
1.808
1.808
1.808
1.808
1.808
1.808
1.808
1.808
1.808
1.808
1.808
1.812
1.812
1.812
1.816
1.819
1.819
1.823
1.823
1.823
1.823
1.823
1.823
1.819
1.819
1.819
1.819
1.819
1.819
1.823
1.823
1.826
1.826
1.826
1.823
1.823
1.823
1.826
1.830
1.830
1.830
1.834
1.834
1.841
1.845
1.848
1.848
1.848
1.845
1.841
1.834
1.826
1.826
1.823
1.823
1.819
1.816
1.816
1.819
1.823
1.830
1.837
1.845
1.845
1.845
1.845
1.841
1.837
1.834
1.834
1.834
1.830
1.830
1.823
1.823
1.823
1.826
1.823
1.823
1.819
1.816
1.816
1.816
1.823
1.826
1.834
1.845
1.859
1.870
1.881
1.888
1.892
1.892
1.892
1.892
1.884
1.881
1.877
1.870
1.863
1.863
1.866
1.870
1.874
1.877
1.877
1.877
1.877
1.877
1.870
1.866
1.866
1.863
1.859
1.855
1.852
1.848
1.848
1.845
1.848
1.848
1.848
1.852
1.852
1.852
1.852
1.852
1.852
1.848
1.845
1.845
1.841
1.841
1.841
1.845
1.852
1.859
1.863
1.870
1.874
1.870
1.866
1.855
1.852
1.852
1.848
1.845
1.848
1.852
1.855
1.855
1.863
1.859
1.859
1.855
1.845
1.834
1.812
1.783
1.747
1.707
1.664
1.635
1.628
1.660
1.740
1.888
2.098
2.347
2.611
2.872
3.107
3.266
3.346
3.378
3.403
3.432
3.458
3.454
3.407
3.320
3.190
3.020
2.825
2.637
2.467
2.336
2.239
2.174
2.130
2.098
2.065
2.033
2.000
1.964
1.931
1.892
1.859
1.830
1.801
1.779
1.761
1.751
1.743
1.736
1.736
1.732
1.729
1.729
1.732
1.732
1.732
1.736
1.736
1.732
1.729
1.725
1.714
1.711
1.711
1.711
1.714
1.711
1.707
1.707
1.704
1.704
1.711
1.714
1.714
1.718
1.722
1.722
1.725
1.725
1.729
1.732
1.736
1.743
1.743
1.747
1.754
1.758
1.758
1.761
1.765
1.769
1.776
1.779
1.783
1.787
1.790
1.794
1.790
1.790
1.790
1.790
1.794
1.798
1.801
1.805
1.808
1.812
1.816
1.819
1.826
1.834
1.845
1.855
1.863
1.877
1.884
1.892
1.899
1.906
1.913
1.921
1.928
1.931
1.935
1.942
1.953
1.957
1.968
1.975
1.982
1.989
1.993
1.996
2.000
2.004
2.007
2.015
2.018
2.022
2.029
2.033
2.036
2.040
2.047
2.051
2.058
2.062
2.065
2.054
2.047
2.040
2.029
2.015
2.000
1.986
1.971
1.957
1.942
1.931
1.913
1.899
1.881
1.866
1.852
1.837
1.823
1.808
1.794
1.779
1.765
1.747
1.732
1.714
1.696
1.682
1.671
1.657
1.646
1.635
1.631
1.620
1.617
1.613
1.609
1.606
1.606
1.606
1.606
1.606
1.609
1.609
1.606
1.606
1.606
1.602
1.602
1.602
1.602
1.606
1.602
1.606
1.609
1.609
1.613
1.613
1.617
1.624
1.628
1.631
1.631
1.628
1.624
1.620
1.620
1.617
1.617
1.617
1.620
1.628
1.631
1.638
1.642
1.649
1.653
1.653
1.649
1.646
1.642
1.642
1.638
1.642
1.642
1.646
1.653
1.653
1.657
1.660
1.664
1.667
1.671
1.675
1.678
1.682
1.682
1.682
1.682
1.678
1.675
1.675
1.678
1.682
1.685
1.689
1.693
1.696
1.700
1.696
1.696
1.700
1.700
1.700
1.700
1.700
1.700
1.704
1.707
1.714
1.718
1.722
1.722
1.725
1.729
1.732
1.732
1.729
1.722
1.718
1.714
1.711
1.711
1.711
1.711
1.711
1.714
1.714
1.718
1.718
1.722
1.718
1.718
1.718
1.718
1.718
1.718
1.722
1.722
1.722
1.722
1.725
1.722
1.725
1.725
1.732
1.736
1.740
1.747
1.751
1.751
1.743
1.743
1.740
1.740
1.740
1.740
1.740
1.740
1.743
1.743
1.747
1.747
1.747
1.743
1.740
1.740
1.736
1.736
1.736
1.740
1.743
1.747
1.751
1.758
1.754
1.751
1.751
1.747
1.747
1.751
1.751
1.751
1.751
1.754
1.754
1.751
1.747
1.747
1.747
1.751
1.751
1.754
1.754
1.758
1.761
1.761
1.761
1.758
1.758
1.758
1.761
1.765
1.765
1.765
1.765
1.765
1.758
1.751
1.747
1.743
1.743
1.743
1.751
1.754
1.758
1.761
1.769
1.765
1.761
1.761
1.758
1.758
1.761
1.765
1.765
1.769
1.769
1.772
1.772
1.772
1.776
1.779
1.783
1.787
1.787
1.787
1.783
1.779
1.776
1.772
1.769
1.772
1.776
1.783
1.790
1.798
1.798
1.798
1.798
1.790
1.787
1.787
1.787
1.790
1.790
1.794
1.794
1.794
1.794
1.794
1.790
1.794
1.794
1.794
1.794
1.798
1.801
1.805
1.812
1.812
1.808
1.798
1.794
1.790
1.787
1.790
1.790
1.790
1.787
1.783
1.783
1.787
1.787
1.794
1.805
1.819
1.830
1.837
1.845
1.852
1.855
1.855
1.859
1.855
1.852
1.845
1.841
1.837
1.834
1.834
1.834
1.837
1.845
1.852
1.852
1.855
1.852
1.852
1.848
1.848
1.845
1.841
1.834
1.830
1.819
1.816
1.816
1.816
1.819
1.819
1.819
1.816
1.816
1.816
1.823
1.823
1.830
1.834
1.841
1.848
1.852
1.855
1.852
1.848
1.848
1.848
1.845
1.848
1.852
1.852
1.855
1.855
1.852
1.852
1.852
1.845
1.841
1.837
1.841
1.841
1.845
1.848
1.852
1.855
1.855
1.852
1.845
1.826
1.801
1.772
1.736
1.696
1.667
1.664
1.693
1.776
1.928
2.148
2.394
2.648
2.886
3.082
3.204
3.266
3.288
3.317
3.356
3.400
3.407
3.356
3.262
3.125
2.955
2.778
2.615
2.478
2.373
2.300
2.242
2.199
2.156
2.116
2.080
2.040
2.004
1.968
1.931
1.899
1.870
1.848
1.834
1.819
1.808
1.801
1.798
1.794
1.794
1.794
1.794
1.794
1.790
1.790
1.787
1.783
1.783
1.783
1.787
1.787
1.787
1.787
1.790
1.794
1.798
1.798
1.798
1.798
1.794
1.794
1.798
1.805
1.808
1.816
1.826
1.830
1.834
1.837
1.834
1.830
1.823
1.819
1.819
1.823
1.826
1.837
1.841
1.845
1.852
1.855
1.859
1.866
1.870
1.874
1.877
1.881
1.888
1.892
1.892
1.892
1.895
1.899
1.906
1.910
1.917
1.924
1.928
1.939
1.942
1.949
1.957
1.964
1.975
1.986
1.996
2.007
2.018
2.029
2.033
2.029
2.033
2.033
2.040
2.047
2.054
2.065
2.076
2.083
2.098
2.101
2.105
2.109
2.112
2.116
2.119
2.123
2.127
2.130
2.138
2.141
2.141
2.145
2.148
2.156
2.159
2.156
2.156
2.148
2.145
2.138
2.130
2.116
2.105
2.094
2.080
2.062
2.043
2.025
2.007
1.989
1.968
1.949
1.931
1.913
1.895
1.881
1.866
1.852
1.837
1.823
1.812
1.801
1.790
1.776
1.761
1.751
1.740
1.732
1.725
1.718
1.714
1.707
1.704
1.696
1.689
1.689
1.685
1.685
1.685
1.685
1.685
1.689
1.689
1.689
1.685
1.682
1.682
1.682
1.685
1.693
1.696
1.700
1.704
1.704
1.700
1.693
1.693
1.696
1.696
1.704
1.707
1.711
1.714
1.718
1.725
1.732
1.740
1.743
1.747
1.747
1.751
1.751
1.751
1.747
1.743
1.747
1.747
1.743
1.747
1.747
1.754
1.758
1.761
1.765
1.765
1.765
1.769
1.769
1.769
1.769
1.772
1.776
1.779
1.779
1.783
1.783
1.783
1.783
1.783
1.787
1.790
1.790
1.794
1.798
1.801
1.808
1.812
1.812
1.816
1.816
1.816
1.812
1.808
1.801
1.798
1.794
1.790
1.794
1.794
1.798
1.801
1.805
1.808
1.816
1.819
1.823
1.823
1.826
1.826
1.826
1.823
1.819
1.816
1.816
1.816
1.819
1.816
1.816
1.816
1.816
1.823
1.826
1.826
1.830
1.830
1.826
1.826
1.826
1.826
1.830
1.830
1.830
1.826
1.823
1.819
1.816
1.812
1.812
1.816
1.816
1.819
1.826
1.830
1.834
1.837
1.841
1.845
1.845
1.845
1.837
1.834
1.830
1.826
1.826
1.823
1.826
1.826
1.830
1.834
1.837
1.845
1.848
1.852
1.852
1.852
1.845
1.845
1.848
1.852
1.852
1.848
1.845
1.845
1.841
1.845
1.845
1.841
1.845
1.848
1.852
1.855
1.863
1.863
1.863
1.859
1.859
1.852
1.848
1.841
1.841
1.841
1.841
1.848
1.855
1.863
1.870
1.877
1.877
1.877
1.874
1.866
1.859
1.855
1.855
1.855
1.859
1.863
1.866
1.866
1.866
1.870
1.870
1.874
1.874
1.874
1.877
1.877
1.877
1.874
1.874
1.874
1.877
1.877
1.881
1.881
1.881
1.881
1.881
1.884
1.884
1.881
1.877
1.877
1.877
1.877
1.881
1.884
1.884
1.884
1.884
1.881
1.877
1.870
1.870
1.866
1.866
1.866
1.866
1.863
1.863
1.863
1.863
1.866
1.863
1.859
1.855
1.855
1.855
1.855
1.859
1.866
1.877
1.884
1.895
1.902
1.910
1.917
1.921
1.924
1.928
1.928
1.924
1.917
1.906
1.899
1.892
1.892
1.895
1.902
1.913
1.921
1.924
1.928
1.924
1.917
1.906
1.899
1.892
1.881
1.874
1.863
1.859
1.859
1.859
1.859
1.859
1.859
1.859
1.863
1.863
1.866
1.870
1.874
1.877
1.881
1.881
1.877
1.877
1.877
1.877
1.881
1.881
1.881
1.877
1.881
1.888
1.888
1.888
1.888
1.884
1.881
1.877
1.877
1.874
1.870
1.870
1.874
1.870
1.870
1.870
1.866
1.859
1.845
1.830
1.801
1.765
1.722
1.678
1.635
1.613
1.631
1.696
1.830
2.040
2.300
2.579
2.854
3.100
3.270
3.349
3.374
3.378
3.385
3.403
3.400
3.356
3.270
3.139
2.980
2.799
2.633
2.488
2.376
2.297
2.235
2.185
2.141
2.105
2.065
2.029
1.982
1.942
1.906
1.870
1.841
1.816
1.798
1.787
1.779
1.772
1.772
1.765
1.761
1.758
1.754
1.754
1.747
1.743
1.736
1.732
1.729
1.729
1.729
1.725
1.729
1.732
1.736
1.740
1.743
1.751
1.754
1.758
1.754
1.754
1.751
1.743
1.743
1.743
1.747
1.751
1.754
1.758
1.765
1.765
1.765
1.769
1.769
1.772
1.779
1.783
1.787
1.790
1.794
1.798
1.798
1.798
1.801
1.805
1.808
1.812
1.816
1.819
1.823
1.826
1.830
1.830
1.830
1.834
1.841
1.845
1.848
1.852
1.859
1.866
1.874
1.884
1.892
1.899
1.906
1.917
1.928
1.939
1.946
1.946
1.949
1.949
1.953
1.953
1.957
1.964
1.975
1.986
1.996
2.007
2.011
2.018
2.022
2.025
2.029
2.033
2.040
2.051
2.054
2.062
2.065
2.065
2.069
2.072
2.069
2.065
2.058
2.054
2.051
2.047
2.040
2.033
2.025
2.015
2.004
1.989
1.971
1.957
1.935
1.917
1.899
1.881
1.866
1.852
1.837
1.823
1.801
1.787
1.769
1.747
1.722
1.700
1.678
1.664
1.649
1.638
1.631
1.628
1.624
1.620
1.620
1.620
1.620
1.620
1.620
1.620
1.620
1.620
1.613
1.613
1.613
1.613
1.617
1.617
1.617
1.620
1.620
1.628
1.628
1.628
1.628
1.628
1.631
1.631
1.628
1.620
1.617
1.617
1.620
1.624
1.628
1.635
1.642
1.646
1.649
1.653
1.657
1.657
1.657
1.660
1.660
1.664
1.667
1.675
1.675
1.671
1.675
1.675
1.675
1.675
1.678
1.678
1.682
1.685
1.689
1.689
1.689
1.689
1.689
1.693
1.700
1.704
1.707
1.711
1.711
1.714
1.718
1.722
1.725
1.725
1.725
1.725
1.725
1.729
1.729
1.732
1.736
1.740
1.740
1.740
1.732
1.729
1.725
1.722
1.722
1.725
1.732
1.736
1.740
1.740
1.743
1.743
1.743
1.743
1.743
1.743
1.747
1.747
1.751
1.751
1.751
1.751
1.751
1.751
1.747
1.747
1.747
1.751
1.751
1.754
1.754
1.754
1.754
1.754
1.754
1.754
1.754
1.754
1.754
1.758
1.758
1.765
1.769
1.769
1.772
1.776
1.779
1.779
1.779
1.776
1.772
1.772
1.772
1.769
1.769
1.769
1.772
1.769
1.772
1.776
1.779
1.787
1.787
1.787
1.783
1.787
1.787
1.790
1.790
1.794
1.794
1.794
1.794
1.790
1.787
1.783
1.779
1.779
1.783
1.787
1.790
1.798
1.801
1.801
1.801
1.801
1.801
1.801
1.801
1.801
1.798
1.794
1.794
1.798
1.801
1.801
1.805
1.808
1.808
1.812
1.808
1.808
1.808
1.805
1.798
1.798
1.801
1.805
1.812
1.816
1.823
1.823
1.819
1.819
1.816
1.816
1.816
1.816
1.816
1.816
1.819
1.823
1.816
1.816
1.816
1.816
1.816
1.816
1.819
1.819
1.823
1.823
1.826
1.823
1.819
1.816
1.816
1.819
1.823
1.826
1.830
1.830
1.834
1.837
1.834
1.834
1.830
1.834
1.834
1.826
1.823
1.823
1.823
1.826
1.830
1.830
1.830
1.834
1.834
1.834
1.826
1.819
1.816
1.812
1.812
1.808
1.805
1.805
1.808
1.812
1.819
1.823
1.823
1.819
1.816
1.812
1.812
1.816
1.826
1.834
1.841
1.848
1.859
1.870
1.877
1.884
1.884
1.884
1.884
1.884
1.877
1.870
1.866
1.863
1.863
1.866
1.874
1.881
1.881
1.884
1.881
1.881
1.881
1.877
1.877
1.874
1.866
1.859
1.852
1.841
1.837
1.834
1.837
1.837
1.841
1.845
1.845
1.845
1.845
1.845
1.841
1.841
1.845
1.848
1.855
1.859
1.859
1.859
1.859
1.863
1.863
1.866
1.863
1.855
1.852
1.848
1.848
1.848
1.852
1.855
1.859
1.859
1.863
1.866
1.866
1.870
1.870
1.874
1.870
1.863
1.845
1.823
1.790
1.751
1.707
1.664
1.635
1.628
1.660
1.743
1.892
2.105
2.358
2.619
2.883
3.114
3.273
3.349
3.385
3.414
3.447
3.476
3.476
3.425
3.327
3.190
3.020
2.825
2.637
2.474
2.344
2.250
2.185
2.145
2.105
2.072
2.036
2.000
1.964
1.924
1.884
1.845
1.808
1.779
1.765
1.754
1.747
1.747
1.747
1.747
1.751
1.751
1.751
1.747
1.743
1.747
1.740
1.736
1.736
1.732
1.732
1.729
1.729
1.729
1.729
1.729
1.732
1.736
1.736
1.740
1.743
1.747
1.751
1.751
1.751
1.751
1.751
1.751
1.751
1.754
1.754
1.758
1.761
1.761
1.765
1.765
1.765
1.769
1.769
1.776
1.779
1.787
1.790
1.798
1.798
1.801
1.801
1.801
1.798
1.790
1.790
1.790
1.798
1.805
1.808
1.816
1.826
1.837
1.845
1.855
1.855
1.859
1.863
1.870
1.874
1.877
1.884
1.892
1.899
1.910
1.924
1.931
1.942
1.953
1.964
1.975
1.982
1.986
1.986
1.986
1.986
1.989
1.989
1.993
2.000
2.004
2.015
2.022
2.029
2.036
2.043
2.054
2.058
2.065
2.069
2.069
2.069
2.065
2.065
2.058
2.047
2.036
2.029
2.018
2.011
2.000
1.993
1.982
1.971
1.960
1.949
1.935
1.917
1.902
1.884
1.866
1.848
1.826
1.801
1.776
1.754
1.736
1.725
1.714
1.704
1.693
1.682
1.675
1.664
1.657
1.653
1.646
1.642
1.638
1.635
1.635
1.631
1.631
1.628
1.624
1.624
1.624
1.624
1.624
1.624
1.631
1.628
1.624
1.617
1.613
1.609
1.609
1.609
1.613
1.620
1.628
1.635
1.635
1.635
1.638
1.642
1.646
1.646
1.649
1.649
1.649
1.649
1.657
1.660
1.664
1.667
1.675
1.678
1.682
1.685
1.689
1.693
1.696
1.700
1.696
1.696
1.696
1.696
1.696
1.696
1.696
1.696
1.693
1.693
1.693
1.693
1.693
1.696
1.700
1.707
1.711
1.718
1.722
1.725
1.732
1.732
1.732
1.732
1.736
1.736
1.736
1.736
1.740
1.743
1.751
1.758
1.758
1.758
1.758
1.758
1.761
1.765
1.765
1.769
1.772
1.776
1.779
1.779
1.776
1.772
1.769
1.769
1.769
1.769
1.772
1.772
1.776
1.779
1.779
1.779
1.779
1.783
1.783
1.783
1.783
1.783
1.783
1.783
1.783
1.783
1.779
1.779
1.776
1.776
1.776
1.776
1.779
1.783
1.783
1.787
1.787
1.787
1.787
1.790
1.794
1.798
1.801
1.801
1.798
1.798
1.798
1.794
1.794
1.798
1.801
1.805
1.808
1.812
1.816
1.819
1.830
1.830
1.834
1.837
1.834
1.834
1.826
1.823
1.816
1.812
1.808
1.812
1.812
1.816
1.823
1.830
1.834
1.834
1.837
1.837
1.837
1.837
1.837
1.830
1.823
1.823
1.823
1.823
1.823
1.826
1.826
1.826
1.830
1.834
1.837
1.845
1.852
1.855
1.859
1.863
1.863
1.866
1.866
1.863
1.859
1.852
1.852
1.848
1.848
1.852
1.855
1.859
1.859
1.863
1.870
1.874
1.877
1.877
1.874
1.870
1.870
1.870
1.870
1.877
1.877
1.884
1.881
1.881
1.877
1.870
1.866
1.866
1.870
1.874
1.874
1.877
1.877
1.874
1.874
1.877
1.877
1.881
1.884
1.884
1.884
1.884
1.884
1.884
1.881
1.881
1.877
1.881
1.881
1.884
1.884
1.884
1.884
1.881
1.884
1.881
1.881
1.881
1.881
1.881
1.877
1.877
1.874
1.874
1.881
1.884
1.892
1.902
1.910
1.917
1.928
1.935
1.946
1.949
1.949
1.946
1.931
1.917
1.906
1.899
1.899
1.902
1.910
1.917
1.924
1.928
1.935
1.935
1.935
1.928
1.924
1.917
1.910
1.902
1.895
1.895
1.892
1.899
1.895
1.899
1.902
1.906
1.906
1.906
1.906
1.902
1.902
1.899
1.899
1.895
1.895
1.899
1.902
1.906
1.906
1.910
1.913
1.913
1.913
1.910
1.902
1.902
1.902
1.902
1.899
1.895
1.895
1.895
1.895
1.899
1.899
1.902
1.902
1.902
1.895
1.881
1.866
1.841
1.816
1.779
1.743
1.704
1.682
1.685
1.732
1.841
2.022
2.264
2.525
2.785
3.024
3.201
3.295
3.327
3.335
3.349
3.382
3.407
3.389
3.327
3.219
3.074
2.904
2.734
2.586
2.463
2.369
2.300
2.246
2.203
2.166
2.130
2.098
2.058
2.018
1.982
1.949
1.917
1.888
1.866
1.845
1.830
1.816
1.808
1.794
1.787
1.783
1.779
1.779
1.779
1.783
1.783
1.787
1.790
1.798
1.798
1.798
1.798
1.798
1.794
1.794
1.794
1.794
1.794
1.794
1.798
1.794
1.794
1.794
1.798
1.801
1.801
1.805
1.805
1.808
1.816
1.823
1.819
1.819
1.819
1.823
1.826
1.830
1.830
1.834
1.837
1.841
1.841
1.841
1.845
1.852
1.859
1.863
1.870
1.870
1.877
1.877
1.884
1.888
1.892
1.899
1.902
1.906
1.910
1.913
1.917
1.924
1.931
1.942
1.949
1.957
1.964
1.971
1.978
1.982
1.986
1.993
1.996
2.004
2.011
2.015
2.018
2.025
2.033
2.043
2.051
2.062
2.069
2.080
2.091
2.098
2.101
2.105
2.105
2.105
2.105
2.105
2.105
2.101
2.105
2.105
2.105
2.109
2.109
2.109
2.105
2.105
2.094
2.087
2.072
2.058
2.043
2.025
2.007
1.993
1.978
1.960
1.946
1.931
1.913
1.899
1.881
1.866
1.845
1.823
1.805
1.787
1.776
1.765
1.754
1.740
1.725
1.714
1.704
1.693
1.685
1.682
1.675
1.671
1.664
1.657
1.653
1.649
1.649
1.653
1.649
1.649
1.649
1.649
1.646
1.646
1.642
1.642
1.642
1.642
1.646
1.646
1.646
1.646
1.646
1.649
1.653
1.657
1.660
1.664
1.667
1.664
1.667
1.667
1.671
1.671
1.675
1.678
1.682
1.685
1.689
1.696
1.696
1.700
1.700
1.704
1.704
1.704
1.707
1.707
1.711
1.714
1.718
1.722
1.725
1.729
1.736
1.740
1.740
1.743
1.743
1.743
1.743
1.743
1.740
1.740
1.740
1.740
1.740
1.740
1.740
1.740
1.740
1.740
1.740
1.736
1.732
1.732
1.736
1.740
1.747
1.754
1.758
1.765
1.772
1.772
1.772
1.772
1.772
1.772
1.772
1.776
1.776
1.779
1.779
1.783
1.779
1.779
1.779
1.776
1.776
1.776
1.776
1.776
1.776
1.776
1.776
1.779
1.779
1.783
1.787
1.790
1.794
1.794
1.794
1.794
1.790
1.790
1.787
1.790
1.790
1.798
1.798
1.801
1.801
1.801
1.798
1.794
1.798
1.798
1.801
1.805
1.805
1.808
1.816
1.819
1.819
1.819
1.816
1.816
1.816
1.816
1.819
1.819
1.823
1.823
1.823
1.823
1.823
1.823
1.816
1.808
1.805
1.798
1.794
1.794
1.798
1.801
1.808
1.812
1.816
1.812
1.808
1.808
1.808
1.812
1.816
1.819
1.823
1.826
1.826
1.826
1.819
1.816
1.808
1.805
1.805
1.805
1.805
1.808
1.812
1.816
1.823
1.823
1.826
1.823
1.823
1.823
1.823
1.823
1.826
1.826
1.826
1.834
1.834
1.834
1.834
1.834
1.834
1.830
1.830
1.830
1.834
1.837
1.837
1.830
1.826
1.819
1.812
1.812
1.808
1.808
1.808
1.816
1.823
1.823
1.826
1.830
1.830
1.826
1.819
1.816
1.812
1.812
1.816
1.819
1.823
1.826
1.834
1.841
1.852
1.859
1.866
1.874
1.877
1.881
1.884
1.881
1.881
1.874
1.870
1.866
1.863
1.863
1.866
1.870
1.877
1.884
1.881
1.881
1.881
1.877
1.881
1.884
1.884
1.877
1.870
1.863
1.852
1.841
1.834
1.823
1.819
1.819
1.823
1.826
1.830
1.837
1.841
1.845
1.845
1.848
1.852
1.855
1.855
1.852
1.852
1.845
1.845
1.841
1.837
1.834
1.834
1.834
1.834
1.830
1.830
1.834
1.837
1.845
1.852
1.855
1.863
1.866
1.866
1.863
1.852
1.837
1.819
1.794
1.765
1.729
1.685
1.649
1.620
1.613
1.646
1.736
1.906
2.141
2.412
2.687
2.940
3.136
3.259
3.309
3.317
3.327
3.349
3.367
3.349
3.288
3.183
3.042
2.868
2.702
2.557
2.438
2.347
2.279
2.224
2.177
2.138
2.105
2.058
2.015
1.968
1.924
1.884
1.852
1.826
1.808
1.794
1.783
1.776
1.765
1.758
1.751
1.743
1.740
1.732
1.725
1.718
1.707
1.707
1.711
1.711
1.718
1.722
1.729
1.736
1.736
1.736
1.736
1.736
1.736
1.740
1.740
1.743
1.751
1.754
1.754
1.754
1.758
1.758
1.758
1.758
1.758
1.754
1.754
1.758
1.761
1.772
1.779
1.776
1.765
1.765
1.769
1.769
1.779
1.787
1.798
1.805
1.808
1.812
1.816
1.823
1.830
1.841
1.852
1.863
1.874
1.884
1.888
1.895
1.899
1.902
1.906
1.913
1.924
1.928
1.939
1.946
1.953
1.964
1.968
1.975
1.982
1.989
2.000
2.011
2.018
2.022
2.029
2.033
2.040
2.051
2.062
2.069
2.080
2.091
2.101
2.105
2.105
2.109
2.109
2.112
2.119
2.123
2.123
2.130
2.130
2.130
2.130
2.127
2.123
2.116
2.109
2.105
2.098
2.091
2.076
2.069
2.054
2.043
2.029
2.011
1.989
1.964
1.942
1.921
1.902
1.884
1.866
1.852
1.834
1.823
1.808
1.790
1.776
1.754
1.736
1.722
1.711
1.704
1.693
1.685
1.675
1.667
1.660
1.653
1.649
1.646
1.646
1.642
1.638
1.638
1.635
1.631
1.631
1.635
1.642
1.646
1.649
1.646
1.642
1.638
1.635
1.638
1.642
1.646
1.653
1.660
1.671
1.675
1.678
1.682
1.678
1.678
1.678
1.675
1.675
1.675
1.671
1.667
1.667
1.667
1.675
1.678
1.685
1.685
1.689
1.689
1.689
1.689
1.689
1.689
1.689
1.689
1.685
1.689
1.693
1.693
1.696
1.696
1.696
1.700
1.700
1.700
1.700
1.696
1.700
1.704
1.711
1.718
1.725
1.732
1.736
1.736
1.740
1.732
1.729
1.725
1.729
1.729
1.732
1.736
1.736
1.736
1.732
1.732
1.725
1.729
1.729
1.736
1.747
1.754
1.761
1.769
1.772
1.769
1.765
1.754
1.754
1.758
1.761
1.761
1.765
1.769
1.769
1.769
1.765
1.769
1.769
1.769
1.765
1.761
1.754
1.751
1.751
1.754
1.754
1.754
1.758
1.754
1.751
1.751
1.747
1.747
1.751
1.751
1.754
1.758
1.758
1.758
1.754
1.754
1.751
1.751
1.751
1.754
1.758
1.765
1.772
1.779
1.779
1.779
1.776
1.772
1.769
1.769
1.765
1.765
1.765
1.765
1.765
1.758
1.751
1.747
1.751
1.754
1.758
1.765
1.769
1.772
1.776
1.776
1.772
1.769
1.769
1.765
1.765
1.769
1.776
1.779
1.787
1.794
1.801
1.801
1.805
1.805
1.808
1.805
1.801
1.794
1.790
1.787
1.787
1.794
1.801
1.805
1.808
1.812
1.816
1.816
1.816
1.812
1.812
1.816
1.812
1.805
1.805
1.808
1.812
1.816
1.819
1.819
1.816
1.816
1.816
1.808
1.805
1.801
1.798
1.798
1.794
1.798
1.794
1.794
1.794
1.798
1.798
1.798
1.798
1.798
1.798
1.798
1.794
1.790
1.787
1.783
1.787
1.790
1.801
1.808
1.819
1.830
1.841
1.848
1.855
1.852
1.848
1.848
1.841
1.837
1.834
1.830
1.826
1.823
1.830
1.841
1.855
1.866
1.874
1.874
1.870
1.863
1.848
1.834
1.819
1.805
1.798
1.798
1.798
1.798
1.801
1.808
1.819
1.826
1.834
1.841
1.845
1.848
1.848
1.848
1.837
1.826
1.819
1.816
1.812
1.808
1.808
1.808
1.812
1.812
1.816
1.819
1.823
1.826
1.830
1.834
1.834
1.834
1.837
1.837
1.837
1.837
1.837
1.837
1.830
1.819
1.808
1.790
1.772
1.740
1.707
1.671
1.642
1.628
1.649
1.711
1.819
1.986
2.199
2.438
2.691
2.940
3.154
3.284
3.349
3.396
3.443
3.483
3.508
3.487
3.422
3.317
3.161
2.969
2.756
2.561
2.402
2.279
2.188
2.127
2.087
2.054
2.022
1.993
1.957
1.921
1.881
1.845
1.816
1.787
1.769
1.754
1.740
1.729
1.725
1.722
1.714
1.714
1.711
1.707
1.707
1.707
1.704
1.700
1.700
1.696
1.693
1.689
1.693
1.693
1.696
1.696
1.696
1.700
1.700
1.707
1.714
1.718
1.725
1.732
1.736
1.736
1.736
1.729
1.725
1.718
1.718
1.722
1.718
1.722
1.725
1.729
1.732
1.736
1.743
1.743
1.743
1.747
1.751
1.758
1.765
1.772
1.779
1.787
1.798
1.805
1.812
1.816
1.816
1.812
1.808
1.808
1.812
1.816
1.819
1.823
1.837
1.848
1.859
1.863
1.866
1.863
1.870
1.877
1.884
1.892
1.906
1.913
1.924
1.931
1.942
1.946
1.953
1.957
1.964
1.971
1.978
1.986
1.993
2.007
2.022
2.036
2.040
2.040
2.033
2.029
2.025
2.025
2.029
2.036
2.043
2.047
2.054
2.058
2.062
2.058
2.054
2.043
2.036
2.025
2.018
2.004
1.989
1.971
1.953
1.939
1.928
1.917
1.906
1.888
1.870
1.845
1.826
1.805
1.783
1.765
1.747
1.732
1.722
1.711
1.704
1.693
1.678
1.671
1.664
1.660
1.646
1.631
1.620
1.609
1.609
1.609
1.617
1.628
1.635
1.642
1.646
1.646
1.646
1.646
1.642
1.638
1.631
1.628
1.620
1.620
1.624
1.624
1.624
1.628
1.628
1.628
1.631
1.635
1.642
1.649
1.657
1.664
1.664
1.664
1.660
1.657
1.653
1.649
1.646
1.646
1.649
1.653
1.660
1.664
1.667
1.671
1.678
1.682
1.685
1.689
1.689
1.689
1.693
1.693
1.693
1.693
1.693
1.696
1.700
1.704
1.707
1.707
1.707
1.714
1.714
1.714
1.722
1.725
1.729
1.725
1.725
1.722
1.722
1.722
1.725
1.725
1.729
1.729
1.732
1.736
1.740
1.743
1.747
1.747
1.747
1.751
1.751
1.754
1.758
1.758
1.758
1.761
1.761
1.765
1.769
1.772
1.776
1.772
1.776
1.772
1.772
1.772
1.772
1.772
1.776
1.776
1.779
1.783
1.779
1.776
1.772
1.769
1.765
1.765
1.769
1.769
1.772
1.779
1.787
1.787
1.790
1.794
1.798
1.798
1.790
1.787
1.779
1.776
1.776
1.776
1.776
1.779
1.783
1.787
1.790
1.790
1.790
1.787
1.783
1.783
1.779
1.779
1.779
1.783
1.783
1.783
1.790
1.798
1.805
1.805
1.808
1.805
1.805
1.801
1.801
1.798
1.794
1.790
1.787
1.783
1.783
1.787
1.787
1.790
1.794
1.798
1.801
1.805
1.805
1.805
1.805
1.805
1.808
1.808
1.808
1.808
1.808
1.812
1.812
1.812
1.816
1.816
1.816
1.812
1.812
1.812
1.819
1.823
1.823
1.823
1.819
1.819
1.816
1.819
1.819
1.823
1.819
1.816
1.812
1.801
1.798
1.798
1.801
1.801
1.808
1.801
1.801
1.798
1.798
1.801
1.805
1.805
1.805
1.805
1.805
1.816
1.819
1.830
1.841
1.852
1.863
1.870
1.877
1.877
1.877
1.877
1.877
1.870
1.866
1.866
1.866
1.866
1.870
1.874
1.877
1.884
1.888
1.888
1.881
1.874
1.866
1.863
1.866
1.866
1.863
1.855
1.841
1.834
1.823
1.819
1.816
1.812
1.812
1.812
1.823
1.826
1.830
1.834
1.837
1.841
1.848
1.848
1.845
1.841
1.837
1.826
1.823
1.819
1.819
1.819
1.819
1.823
1.823
1.819
1.819
1.819
1.819
1.819
1.826
1.834
1.841
1.845
1.848
1.848
1.855
1.859
1.855
1.845
1.837
1.823
1.801
1.772
1.740
1.696
1.657
1.628
1.620
1.653
1.729
1.874
2.072
2.304
2.546
2.770
2.955
3.063
3.110
3.125
3.150
3.186
3.215
3.212
3.168
3.089
2.977
2.836
2.680
2.535
2.409
2.308
2.228
2.170
2.123
2.087
2.047
2.011
1.971
1.931
1.895
1.859
1.826
1.801
1.787
1.776
1.776
1.772
1.769
1.765
1.761
1.754
1.751
1.751
1.751
1.747
1.743
1.740
1.736
1.736
1.736
1.736
1.732
1.729
1.729
1.729
1.732
1.740
1.747
1.751
1.758
1.765
1.769
1.772
1.776
1.779
1.779
1.783
1.790
1.787
1.787
1.790
1.790
1.790
1.790
1.790
1.794
1.801
1.805
1.812
1.816
1.816
1.816
1.819
1.823
1.823
1.826
1.826
1.830
1.837
1.841
1.841
1.845
1.848
1.855
1.863
1.870
1.874
1.874
1.877
1.881
1.888
1.892
1.899
1.906
1.913
1.924
1.935
1.946
1.953
1.964
1.971
1.978
1.982
1.986
1.993
2.004
2.015
2.022
2.029
2.033
2.040
2.051
2.054
2.054
2.058
2.058
2.065
2.072
2.083
2.087
2.094
2.101
2.109
2.112
2.116
2.112
2.109
2.105
2.101
2.098
2.094
2.091
2.083
2.076
2.058
2.040
2.022
2.007
1.993
1.978
1.964
1.949
1.935
1.913
1.892
1.866
1.841
1.826
1.812
1.801
1.790
1.779
1.765
1.751
1.740
1.729
1.718
1.707
1.700
1.689
1.685
1.678
1.671
1.667
1.664
1.660
1.653
1.646
1.638
1.631
1.628
1.628
1.628
1.631
1.635
1.638
1.642
1.646
1.649
1.653
1.653
1.657
1.657
1.653
1.649
1.646
1.638
1.638
1.638
1.638
1.646
1.649
1.657
1.660
1.667
1.675
1.678
1.682
1.685
1.678
1.675
1.675
1.675
1.678
1.675
1.675
1.675
1.678
1.685
1.689
1.689
1.693
1.693
1.696
1.696
1.696
1.693
1.693
1.696
1.700
1.707
1.711
1.714
1.711
1.707
1.704
1.704
1.707
1.707
1.711
1.714
1.714
1.718
1.725
1.729
1.729
1.725
1.722
1.718
1.714
1.711
1.714
1.711
1.714
1.714
1.718
1.722
1.729
1.732
1.740
1.747
1.754
1.758
1.758
1.758
1.754
1.754
1.747
1.747
1.743
1.743
1.747
1.751
1.754
1.751
1.747
1.751
1.747
1.751
1.754
1.758
1.761
1.765
1.769
1.772
1.776
1.779
1.779
1.776
1.772
1.765
1.761
1.761
1.761
1.765
1.769
1.772
1.776
1.776
1.779
1.779
1.779
1.783
1.783
1.783
1.783
1.779
1.779
1.779
1.783
1.787
1.790
1.798
1.801
1.805
1.808
1.808
1.808
1.808
1.812
1.816
1.816
1.816
1.816
1.816
1.812
1.805
1.805
1.801
1.801
1.801
1.801
1.798
1.798
1.798
1.794
1.794
1.794
1.801
1.808
1.816
1.823
1.826
1.826
1.826
1.823
1.823
1.819
1.819
1.819
1.816
1.812
1.808
1.805
1.801
1.798
1.794
1.794
1.794
1.801
1.805
1.808
1.812
1.819
1.823
1.823
1.826
1.834
1.841
1.852
1.866
1.870
1.877
1.884
1.892
1.895
1.895
1.895
1.888
1.877
1.863
1.855
1.841
1.830
1.826
1.826
1.834
1.845
1.852
1.855
1.863
1.866
1.866
1.866
1.866
1.863
1.866
1.866
1.866
1.870
1.870
1.870
1.874
1.870
1.863
1.859
1.859
1.859
1.866
1.870
1.877
1.881
1.884
1.888
1.888
1.888
1.892
1.888
1.888
1.884
1.881
1.881
1.881
1.877
1.877
1.874
1.874
1.874
1.874
1.874
1.874
1.874
1.877
1.884
1.892
1.895
1.888
1.884
1.874
1.863
1.845
1.819
1.790
1.758
1.725
1.704
1.711
1.754
1.866
2.047
2.279
2.525
2.760
2.955
3.078
3.143
3.157
3.143
3.136
3.157
3.168
3.143
3.071
2.962
2.836
2.705
2.593
2.510
2.438
2.383
2.340
2.297
2.257
2.217
2.177
2.134
2.091
2.047
2.004
1.960
1.924
1.895
1.874
1.859
1.848
1.845
1.841
1.837
1.837
1.841
1.837
1.837
1.834
1.826
1.826
1.823
1.823
1.819
1.816
1.816
1.819
1.819
1.823
1.826
1.826
1.823
1.819
1.816
1.816
1.819
1.823
1.826
1.830
1.834
1.841
1.845
1.852
1.852
1.852
1.852
1.852
1.855
1.855
1.852
1.852
1.855
1.859
1.866
1.874
1.877
1.877
1.877
1.881
1.884
1.892
1.906
1.910
1.913
1.910
1.902
1.899
1.895
1.899
1.902
1.902
1.906
1.913
1.921
1.928
1.939
1.949
1.960
1.971
1.982
1.996
2.000
2.007
2.015
2.018
2.025
2.033
2.040
2.047
2.058
2.069
2.080
2.087
2.094
2.105
2.112
2.116
2.119
2.119
2.119
2.119
2.127
2.123
2.123
2.127
2.127
2.127
2.130
2.134
2.138
2.141
2.141
2.145
2.138
2.130
2.119
2.109
2.094
2.076
2.058
2.040
2.022
2.004
1.986
1.957
1.931
1.910
1.892
1.874
1.855
1.841
1.826
1.816
1.801
1.790
1.772
1.754
1.736
1.718
1.704
1.689
1.671
1.660
1.649
1.642
1.638
1.635
1.638
1.638
1.638
1.638
1.638
1.638
1.638
1.638
1.635
1.631
1.620
1.617
1.613
1.613
1.617
1.617
1.620
1.624
1.628
1.635
1.635
1.638
1.638
1.646
1.653
1.657
1.660
1.660
1.664
1.664
1.667
1.660
1.653
1.649
1.649
1.653
1.657
1.667
1.675
1.682
1.693
1.700
1.696
1.696
1.696
1.700
1.704
1.711
1.711
1.707
1.704
1.704
1.700
1.696
1.696
1.700
1.707
1.711
1.711
1.711
1.707
1.704
1.704
1.704
1.704
1.704
1.707
1.711
1.714
1.718
1.722
1.722
1.722
1.725
1.729
1.729
1.732
1.729
1.729
1.729
1.732
1.732
1.732
1.732
1.732
1.729
1.725
1.722
1.714
1.714
1.718
1.725
1.732
1.736
1.736
1.740
1.743
1.747
1.751
1.747
1.743
1.740
1.740
1.740
1.740
1.740
1.732
1.725
1.722
1.725
1.725
1.725
1.725
1.725
1.725
1.722
1.722
1.722
1.718
1.718
1.718
1.718
1.718
1.718
1.718
1.718
1.718
1.718
1.714
1.718
1.718
1.718
1.722
1.722
1.722
1.722
1.722
1.722
1.722
1.722
1.722
1.725
1.729
1.729
1.732
1.732
1.732
1.732
1.732
1.732
1.729
1.725
1.722
1.718
1.711
1.704
1.700
1.696
1.696
1.696
1.700
1.693
1.693
1.689
1.689
1.689
1.693
1.700
1.707
1.718
1.729
1.740
1.743
1.747
1.751
1.747
1.743
1.743
1.740
1.736
1.732
1.732
1.732
1.729
1.729
1.732
1.736
1.736
1.740
1.743
1.747
1.747
1.743
1.732
1.722
1.704
1.685
1.667
1.657
1.649
1.649
1.649
1.649
1.649
1.649
1.649
1.653
1.653
1.653
1.649
1.646
1.646
1.642
1.642
1.642
1.642
1.635
1.631
1.631
1.628
1.624
1.624
1.620
1.617
1.617
1.613
1.609
1.609
1.609
1.613
1.613
1.617
1.620
1.620
1.624
1.620
1.620
1.613
1.602
1.584
1.570
1.544
1.512
1.476
1.432
1.392
1.364
1.353
1.389
1.479
1.638
1.866
2.123
2.394
2.658
2.897
3.063
3.150
3.176
3.197
3.219
3.233
3.215
3.150
3.045
2.901
2.723
2.532
2.351
2.195
2.072
1.978
1.917
1.866
1.830
1.794
1.754
1.718
1.682
1.646
1.606
1.570
1.541
1.515
1.494
1.476
1.458
1.439
1.425
1.411
1.407
1.400
1.400
1.400
1.396
1.396
1.392
1.389
1.392
1.389
1.389
1.385
1.378
1.374
1.371
1.371
1.371
1.374
1.378
1.382
1.389
1.392
1.389
1.392
1.392
1.392
1.389
1.385
1.385
1.382
1.385
1.389
1.396
1.400
1.403
1.407
1.403
1.403
1.400
1.396
1.392
1.389
1.389
1.385
1.385
1.389
1.392
1.400
1.411
1.418
1.429
1.429
1.429
1.429
1.429
1.425
1.421
1.421
1.429
1.436
1.447
1.454
1.461
1.468
1.476
1.487
1.494
1.505
1.512
1.519
1.526
1.534
1.537
1.537
1.537
1.541
1.544
1.548
1.555
1.566
1.573
1.584
1.595
1.602
1.609
1.617
1.624
1.628
1.631
1.631
1.631
1.631
1.624
1.620
1.613
1.606
1.595
1.588
1.581
1.577
1.577
1.570
1.562
1.544
1.534
1.515
1.497
1.479
1.458
1.429
1.403
1.378
1.356
1.338
1.320
1.306
1.291
1.277
1.266
1.251
1.237
1.226
1.215
1.208
1.201
1.190
1.179
1.168
1.157
1.154
1.147
1.143
1.136
1.132
1.128
1.132
1.136
1.139
1.139
1.143
1.143
1.143
1.147
1.147
1.150
1.147
1.147
1.143
1.139
1.136
1.136
1.136
1.132
1.132
1.132
1.136
1.143
1.150
1.154
1.157
1.161
1.168
1.172
1.175
1.175
1.172
1.172
1.172
1.179
1.183
1.186
1.186
1.190
1.190
1.190
1.190
1.194
1.197
1.201
1.208
1.212
1.212
1.212
1.212
1.215
1.215
1.215
1.215
1.215
1.222
1.226
1.233
1.237
1.244
1.248
1.248
1.248
1.244
1.241
1.237
1.233
1.237
1.244
1.251
1.259
1.262
1.262
1.266
1.266
1.266
1.266
1.266
1.266
1.262
1.266
1.273
1.284
1.288
1.291
1.288
1.288
1.288
1.288
1.291
1.298
1.306
1.309
1.317
1.320
1.317
1.313
1.313
1.313
1.309
1.309
1.313
1.317
1.324
1.324
1.331
1.335
1.338
1.342
1.345
1.353
1.356
1.356
1.360
1.360
1.360
1.360
1.360
1.364
1.364
1.364
1.360
1.356
1.353
1.353
1.360
1.364
1.371
1.374
1.378
1.378
1.382
1.382
1.385
1.382
1.382
1.385
1.382
1.382
1.382
1.385
1.389
1.392
1.396
1.403
1.407
1.411
1.411
1.403
1.400
1.396
1.392
1.392
1.396
1.400
1.400
1.403
1.411
1.414
1.414
1.411
1.411
1.411
1.411
1.414
1.414
1.414
1.418
1.418
1.425
1.425
1.425
1.425
1.421
1.418
1.414
1.414
1.421
1.429
1.439
1.450
1.461
1.472
1.483
1.490
1.497
1.505
1.512
1.519
1.526
1.530
1.526
1.519
1.512
1.505
1.505
1.505
1.505
1.512
1.515
1.526
1.534
1.537
1.534
1.530
1.523
1.515
1.508
1.501
1.497
1.497
1.501
1.501
1.501
1.501
1.497
1.497
1.497
1.494
1.494
1.490
1.490
1.494
1.497
1.501
1.501
1.505
1.512
1.515
1.519
1.526
1.530
1.534
1.537
1.537
1.537
1.534
1.530
1.526
1.526
1.526
1.530
1.534
1.541
1.544
1.548
1.544
1.541
1.541
1.534
1.526
1.515
1.501
1.476
1.439
1.396
1.353
1.327
1.331
1.385
1.494
1.664
1.892
2.152
2.434
2.716
2.977
3.147
3.244
3.309
3.364
3.400
3.418
3.396
3.327
3.215
3.060
2.846
2.600
2.369
2.174
2.018
1.913
1.848
1.805
1.772
1.740
1.711
1.682
1.649
1.617
1.584
1.555
1.534
1.515
1.505
1.497
1.494
1.490
1.483
1.476
1.472
1.465
1.465
1.461
1.465
1.468
1.472
1.472
1.472
1.476
1.479
1.479
1.479
1.479
1.479
1.479
1.483
1.487
1.490
1.497
1.501
1.505
1.508
1.512
1.512
1.515
1.515
1.515
1.519
1.523
1.523
1.523
1.526
1.530
1.534
1.534
1.541
1.544
1.548
1.552
1.555
1.555
1.559
1.562
1.566
1.570
1.573
1.577
1.581
1.584
1.588
1.595
1.595
1.595
1.595
1.602
1.613
1.624
1.631
1.638
1.642
1.649
1.657
1.660
1.667
1.675
1.682
1.689
1.696
1.704
1.714
1.725
1.736
1.747
1.758
1.769
1.776
1.787
1.794
1.801
1.812
1.819
1.830
1.841
1.845
1.845
1.848
1.852
1.852
1.855
1.859
1.866
1.874
1.881
1.884
1.884
1.884
1.881
1.877
1.870
1.863
1.855
1.841
1.826
1.808
1.798
1.779
1.765
1.751
1.736
1.725
1.707
1.700
1.685
1.671
1.653
1.635
1.613
1.595
1.581
1.566
1.562
1.555
1.548
1.541
1.534
1.526
1.523
1.515
1.512
1.505
1.501
1.501
1.501
1.505
1.508
1.512
1.512
1.515
1.515
1.515
1.512
1.512
1.512
1.508
1.508
1.508
1.512
1.519
1.526
1.530
1.537
1.541
1.541
1.544
1.548
1.552
1.555
1.555
1.559
1.559
1.562
1.566
1.570
1.573
1.581
1.584
1.588
1.591
1.595
1.599
1.599
1.606
1.613
1.613
1.617
1.620
1.624
1.628
1.631
1.628
1.628
1.628
1.631
1.638
1.646
1.649
1.649
1.653
1.657
1.660
1.664
1.667
1.671
1.675
1.678
1.685
1.685
1.689
1.693
1.696
1.700
1.696
1.693
1.693
1.696
1.700
1.704
1.707
1.714
1.718
1.722
1.722
1.722
1.725
1.725
1.732
1.736
1.740
1.740
1.747
1.754
1.761
1.765
1.765
1.761
1.758
1.758
1.758
1.758
1.758
1.761
1.761
1.765
1.769
1.776
1.779
1.787
1.794
1.794
1.790
1.787
1.783
1.783
1.783
1.787
1.798
1.801
1.805
1.812
1.816
1.816
1.816
1.816
1.808
1.805
1.801
1.808
1.808
1.812
1.816
1.823
1.830
1.834
1.837
1.837
1.834
1.834
1.830
1.826
1.823
1.826
1.830
1.837
1.841
1.841
1.841
1.841
1.845
1.845
1.848
1.852
1.852
1.852
1.852
1.855
1.859
1.859
1.859
1.859
1.855
1.859
1.863
1.866
1.866
1.870
1.874
1.884
1.892
1.902
1.906
1.906
1.902
1.895
1.888
1.884
1.877
1.874
1.870
1.874
1.877
1.884
1.884
1.888
1.888
1.895
1.899
1.906
1.910
1.917
1.924
1.939
1.946
1.949
1.957
1.964
1.968
1.964
1.964
1.964
1.960
1.957
1.960
1.957
1.960
1.964
1.971
1.971
1.978
1.978
1.978
1.971
1.968
1.964
1.957
1.946
1.939
1.935
1.935
1.935
1.939
1.942
1.946
1.949
1.953
1.949
1.949
1.949
1.946
1.946
1.946
1.946
1.949
1.953
1.953
1.957
1.957
1.957
1.953
1.957
1.960
1.960
1.964
1.960
1.960
1.960
1.960
1.957
1.957
1.960
1.960
1.957
1.957
1.960
1.964
1.964
1.964
1.960
1.957
1.946
1.935
1.921
1.895
1.870
1.834
1.801
1.776
1.783
1.823
1.921
2.087
2.304
2.546
2.796
3.024
3.186
3.270
3.291
3.302
3.317
3.342
3.353
3.327
3.266
3.176
3.056
2.912
2.760
2.622
2.506
2.412
2.344
2.289
2.250
2.213
2.177
2.141
2.101
2.065
2.025
1.989
1.960
1.935
1.917
1.906
1.899
1.895
1.892
1.888
1.888
1.888
1.888
1.881
1.877
1.874
1.870
1.870
1.870
1.870
1.874
1.877
1.884
1.884
1.881
1.877
1.877
1.874
1.870
1.870
1.874
1.877
1.881
1.888
1.892
1.892
1.895
1.895
1.895
1.895
1.899
1.902
1.906
1.906
1.906
1.899
1.899
1.899
1.906
1.910
1.917
1.921
1.921
1.924
1.931
1.939
1.935
1.935
1.935
1.939
1.939
1.946
1.949
1.960
1.968
1.978
1.978
1.978
1.982
1.986
1.993
2.000
2.004
2.015
2.022
2.033
2.051
2.054
2.062
2.069
2.072
2.080
2.087
2.094
2.101
2.105
2.109
2.119
2.123
2.130
2.138
2.145
2.152
2.159
2.166
2.170
2.174
2.177
2.185
2.185
2.188
2.192
2.195
2.199
2.203
2.206
2.210
2.213
2.213
2.210
2.206
2.195
2.185
2.170
2.156
2.141
2.119
2.098
2.072
2.051
2.029
2.011
1.993
1.978
1.960
1.946
1.931
1.913
1.899
1.888
1.881
1.866
1.855
1.845
1.834
1.823
1.812
1.801
1.798
1.790
1.790
1.787
1.779
1.776
1.772
1.765
1.761
1.765
1.765
1.769
1.776
1.779
1.787
1.787
1.790
1.794
1.794
1.798
1.801
1.801
1.798
1.794
1.790
1.794
1.794
1.794
1.790
1.787
1.787
1.783
1.783
1.783
1.787
1.790
1.798
1.801
1.805
1.808
1.812
1.816
1.819
1.819
1.823
1.826
1.830
1.830
1.830
1.830
1.830
1.830
1.834
1.834
1.837
1.837
1.841
1.845
1.841
1.845
1.845
1.848
1.852
1.855
1.855
1.855
1.855
1.855
1.855
1.855
1.859
1.866
1.874
1.884
1.892
1.895
1.895
1.892
1.892
1.888
1.881
1.881
1.884
1.888
1.892
1.895
1.899
1.899
1.899
1.895
1.895
1.892
1.892
1.892
1.895
1.895
1.902
1.906
1.913
1.921
1.928
1.931
1.931
1.931
1.924
1.921
1.917
1.917
1.917
1.921
1.924
1.931
1.928
1.928
1.931
1.931
1.935
1.935
1.939
1.939
1.942
1.942
1.949
1.946
1.949
1.949
1.949
1.949
1.953
1.957
1.957
1.957
1.957
1.953
1.949
1.946
1.946
1.949
1.946
1.946
1.942
1.935
1.935
1.939
1.942
1.942
1.946
1.949
1.953
1.957
1.960
1.964
1.964
1.964
1.971
1.971
1.978
1.978
1.982
1.982
1.986
1.989
1.989
1.982
1.978
1.975
1.968
1.968
1.968
1.975
1.978
1.986
1.996
2.000
2.004
2.004
2.000
1.993
1.989
1.986
1.982
1.982
1.982
1.982
1.982
1.982
1.982
1.982
1.978
1.978
1.982
1.982
1.982
1.982
1.982
1.982
1.986
1.993
2.004
2.011
2.025
2.036
2.051
2.054
2.054
2.054
2.054
2.054
2.058
2.054
2.051
2.043
2.043
2.043
2.040
2.040
2.033
2.029
2.029
2.029
2.025
2.022
2.022
2.022
2.018
2.015
2.007
2.004
2.000
2.000
2.004
2.004
2.007
2.007
2.007
2.004
1.996
1.989
1.986
1.978
1.971
1.971
1.964
1.960
1.960
1.964
1.971
1.975
1.978
1.978
1.986
1.989
1.996
1.993
1.993
1.996
1.996
2.000
2.004
2.007
2.011
2.015
2.018
2.015
2.011
2.011
2.015
2.011
2.007
2.000
1.989
1.971
1.953
1.931
1.895
1.859
1.830
1.812
1.816
1.863
1.964
2.141
2.376
2.629
2.879
3.092
3.237
3.313
3.327
3.320
3.320
3.342
3.349
3.320
3.252
3.150
3.020
2.886
2.760
2.658
2.572
2.499
2.449
2.402
2.358
2.315
2.271
2.221
2.174
2.130
2.091
2.054
2.025
1.996
1.975
1.957
1.946
1.935
1.924
1.917
1.917
1.913
1.913
1.917
1.917
1.921
1.924
1.928
1.928
1.924
1.921
1.917
1.913
1.913
1.913
1.913
1.917
1.917
1.924
1.924
1.928
1.928
1.931
1.935
1.935
1.939
1.942
1.946
1.949
1.953
1.949
1.946
1.942
1.939
1.939
1.942
1.946
1.953
1.960
1.964
1.971
1.975
1.975
1.978
1.982
1.986
1.989
1.993
1.996
2.004
2.015
2.022
2.025
2.029
2.033
2.033
2.036
2.036
2.040
2.043
2.043
2.051
2.051
2.054
2.062
2.069
2.080
2.094
2.109
2.123
2.134
2.141
2.148
2.145
2.145
2.145
2.148
2.152
2.156
2.163
2.170
2.177
2.185
2.199
2.203
2.213
2.224
2.232
2.239
2.242
2.246
2.246
2.246
2.246
2.246
2.239
2.235
2.228
2.221
2.217
2.213
2.210
2.203
2.195
2.188
2.181
2.163
2.152
2.134
2.116
2.098
2.080
2.062
2.043
2.022
2.000
1.978
1.957
1.939
1.924
1.906
1.895
1.881
1.870
1.859
1.848
1.834
1.816
1.801
1.790
1.779
1.776
1.769
1.769
1.769
1.769
1.772
1.772
1.772
1.776
1.779
1.783
1.783
1.783
1.783
1.783
1.779
1.776
1.769
1.761
1.758
1.758
1.758
1.765
1.772
1.779
1.787
1.790
1.798
1.794
1.794
1.794
1.790
1.787
1.787
1.790
1.801
1.812
1.823
1.837
1.841
1.841
1.837
1.834
1.826
1.823
1.823
1.826
1.830
1.834
1.841
1.841
1.841
1.841
1.837
1.837
1.837
1.837
1.841
1.848
1.859
1.870
1.874
1.881
1.884
1.888
1.884
1.881
1.877
1.874
1.870
1.870
1.874
1.877
1.877
1.877
1.877
1.881
1.884
1.888
1.884
1.884
1.888
1.892
1.892
1.892
1.895
1.899
1.902
1.902
1.902
1.906
1.906
1.910
1.910
1.910
1.913
1.917
1.921
1.924
1.921
1.917
1.913
1.910
1.910
1.910
1.910
1.913
1.913
1.913
1.917
1.921
1.924
1.928
1.931
1.935
1.935
1.935
1.935
1.935
1.931
1.931
1.928
1.924
1.924
1.924
1.924
1.924
1.928
1.928
1.931
1.931
1.931
1.931
1.931
1.931
1.931
1.931
1.928
1.928
1.928
1.928
1.931
1.939
1.942
1.942
1.942
1.946
1.946
1.939
1.935
1.931
1.928
1.924
1.924
1.928
1.931
1.935
1.942
1.942
1.942
1.946
1.942
1.942
1.939
1.935
1.928
1.917
1.902
1.895
1.895
1.899
1.910
1.917
1.931
1.946
1.960
1.971
1.982
1.989
1.993
1.989
1.989
1.986
1.982
1.975
1.971
1.968
1.964
1.968
1.971
1.982
1.978
1.978
1.982
1.986
1.982
1.978
1.971
1.960
1.949
1.942
1.939
1.939
1.939
1.942
1.946
1.949
1.953
1.957
1.960
1.960
1.957
1.946
1.935
1.928
1.921
1.921
1.924
1.928
1.931
1.939
1.942
1.946
1.942
1.935
1.931
1.928
1.924
1.924
1.924
1.924
1.924
1.928
1.935
1.939
1.942
1.942
1.946
1.949
1.949
1.949
1.949
1.942
1.931
1.917
1.895
1.870
1.841
1.808
1.772
1.743
1.718
1.718
1.751
1.837
1.993
2.221
2.481
2.745
2.987
3.183
3.302
3.349
3.346
3.335
3.342
3.346
3.317
3.252
3.143
3.006
2.850
2.709
2.590
2.492
2.416
2.362
2.315
2.275
2.239
2.203
2.163
2.123
2.080
2.040
2.000
1.964
1.935
1.906
1.888
1.874
1.863
1.855
1.845
1.837
1.834
1.834
1.837
1.841
1.845
1.841
1.841
1.841
1.841
1.837
1.834
1.826
1.819
1.816
1.819
1.819
1.823
1.826
1.826
1.830
1.834
1.834
1.830
1.830
1.830
1.837
1.841
1.848
1.852
1.855
1.859
1.859
1.863
1.863
1.866
1.870
1.866
1.866
1.866
1.870
1.874
1.870
1.874
1.874
1.877
1.884
1.888
1.892
1.892
1.895
1.902
1.906
1.913
1.921
1.924
1.931
1.939
1.949
1.949
1.953
1.960
1.964
1.971
1.978
1.986
1.993
2.000
2.004
2.015
2.018
2.022
2.033
2.043
2.054
2.069
2.080
2.091
2.098
2.109
2.112
2.112
2.116
2.119
2.127
2.130
2.134
2.138
2.145
2.148
2.159
2.159
2.159
2.159
2.159
2.159
2.159
2.156
2.152
2.152
2.152
2.145
2.134
2.123
2.105
2.083
2.058
2.033
2.007
1.986
1.968
1.953
1.935
1.917
1.899
1.877
1.855
1.834
1.812
1.798
1.779
1.765
1.758
1.751
1.743
1.736
1.729
1.722
1.714
1.704
1.696
1.689
1.682
1.675
1.667
1.660
1.660
1.660
1.664
1.667
1.667
1.671
1.671
1.671
1.671
1.667
1.667
1.671
1.675
1.678
1.682
1.682
1.682
1.682
1.678
1.678
1.671
1.664
1.664
1.667
1.671
1.678
1.685
1.693
1.700
1.704
1.711
1.707
1.711
1.711
1.711
1.714
1.714
1.718
1.718
1.722
1.725
1.732
1.729
1.729
1.732
1.732
1.736
1.740
1.743
1.751
1.754
1.758
1.758
1.751
1.751
1.751
1.751
1.754
1.754
1.754
1.754
1.754
1.754
1.754
1.754
1.758
1.761
1.765
1.765
1.769
1.772
1.772
1.776
1.779
1.783
1.787
1.790
1.787
1.787
1.787
1.787
1.787
1.790
1.790
1.794
1.790
1.790
1.794
1.798
1.798
1.801
1.801
1.801
1.801
1.805
1.808
1.808
1.805
1.801
1.798
1.794
1.790
1.794
1.794
1.798
1.801
1.801
1.805
1.805
1.808
1.808
1.808
1.812
1.808
1.808
1.808
1.812
1.812
1.816
1.819
1.823
1.823
1.823
1.823
1.823
1.823
1.823
1.823
1.819
1.816
1.812
1.808
1.808
1.812
1.816
1.816
1.816
1.819
1.823
1.823
1.826
1.830
1.830
1.834
1.837
1.837
1.837
1.837
1.834
1.830
1.823
1.819
1.819
1.823
1.826
1.834
1.834
1.837
1.834
1.834
1.830
1.826
1.823
1.819
1.819
1.819
1.819
1.823
1.823
1.823
1.823
1.819
1.812
1.816
1.819
1.823
1.834
1.841
1.855
1.863
1.874
1.884
1.884
1.888
1.888
1.888
1.895
1.895
1.895
1.892
1.888
1.881
1.877
1.877
1.881
1.884
1.892
1.895
1.899
1.902
1.902
1.895
1.888
1.877
1.863
1.852
1.845
1.845
1.845
1.848
1.852
1.855
1.859
1.863
1.866
1.866
1.863
1.859
1.852
1.852
1.848
1.848
1.852
1.855
1.859
1.863
1.863
1.866
1.866
1.866
1.866
1.866
1.863
1.863
1.863
1.863
1.863
1.859
1.863
1.863
1.866
1.866
1.874
1.877
1.881
1.884
1.881
1.866
1.845
1.819
1.794
1.765
1.732
1.693
1.664
1.646
1.657
1.707
1.805
1.971
2.192
2.438
2.698
2.948
3.150
3.270
3.320
3.349
3.378
3.403
3.422
3.403
3.342
3.244
3.107
2.933
2.745
2.568
2.420
2.308
2.224
2.166
2.127
2.094
2.065
2.033
1.996
1.960
1.928
1.895
1.863
1.834
1.808
1.794
1.783
1.772
1.769
1.761
1.754
1.747
1.747
1.740
1.736
1.736
1.736
1.732
1.732
1.736
1.743
1.747
1.754
1.758
1.758
1.761
1.761
1.761
1.761
1.754
1.747
1.740
1.740
1.743
1.747
1.751
1.758
1.761
1.765
1.772
1.776
1.776
1.776
1.776
1.776
1.779
1.779
1.783
1.790
1.798
1.805
1.808
1.816
1.812
1.805
1.801
1.798
1.794
1.798
1.805
1.816
1.826
1.834
1.841
1.845
1.852
1.863
1.866
1.874
1.877
1.881
1.881
1.884
1.888
1.895
1.902
1.910
1.921
1.928
1.942
1.957
1.964
1.971
1.975
1.978
1.982
1.986
1.993
2.000
2.000
2.004
2.007
2.011
2.015
2.025
2.036
2.043
2.054
2.058
2.065
2.065
2.062
2.062
2.062
2.062
2.065
2.065
2.062
2.054
2.047
2.036
2.029
2.018
2.007
2.000
1.989
1.975
1.960
1.946
1.928
1.913
1.888
1.870
1.852
1.834
1.819
1.805
1.790
1.772
1.754
1.740
1.732
1.718
1.707
1.696
1.685
1.675
1.664
1.657
1.649
1.646
1.642
1.638
1.631
1.628
1.624
1.624
1.624
1.628
1.631
1.635
1.635
1.635
1.638
1.635
1.628
1.628
1.628
1.631
1.635
1.642
1.646
1.649
1.657
1.660
1.660
1.660
1.660
1.664
1.667
1.671
1.671
1.667
1.667
1.667
1.664
1.664
1.664
1.667
1.671
1.675
1.682
1.689
1.696
1.700
1.704
1.704
1.700
1.700
1.700
1.700
1.700
1.700
1.700
1.696
1.700
1.704
1.707
1.707
1.707
1.707
1.707
1.707
1.707
1.711
1.714
1.718
1.722
1.722
1.725
1.725
1.729
1.729
1.736
1.736
1.740
1.743
1.743
1.743
1.747
1.747
1.743
1.743
1.743
1.747
1.751
1.751
1.751
1.754
1.754
1.754
1.758
1.758
1.761
1.761
1.761
1.761
1.761
1.761
1.765
1.761
1.758
1.761
1.765
1.769
1.769
1.772
1.769
1.769
1.769
1.772
1.772
1.776
1.779
1.783
1.783
1.787
1.787
1.787
1.787
1.783
1.783
1.779
1.776
1.776
1.776
1.779
1.783
1.787
1.794
1.798
1.805
1.808
1.805
1.798
1.787
1.776
1.769
1.769
1.769
1.776
1.783
1.790
1.794
1.794
1.798
1.798
1.798
1.798
1.798
1.794
1.794
1.798
1.801
1.801
1.801
1.805
1.808
1.808
1.808
1.808
1.808
1.808
1.808
1.812
1.812
1.816
1.816
1.819
1.819
1.819
1.819
1.819
1.816
1.819
1.819
1.816
1.812
1.808
1.805
1.805
1.808
1.812
1.816
1.816
1.816
1.816
1.816
1.812
1.812
1.812
1.819
1.826
1.834
1.841
1.848
1.859
1.866
1.874
1.877
1.881
1.881
1.884
1.888
1.892
1.888
1.884
1.884
1.881
1.877
1.877
1.881
1.884
1.888
1.892
1.892
1.892
1.888
1.888
1.884
1.881
1.874
1.866
1.855
1.852
1.848
1.848
1.852
1.852
1.852
1.852
1.852
1.855
1.859
1.863
1.870
1.874
1.877
1.877
1.877
1.881
1.881
1.881
1.877
1.877
1.881
1.881
1.884
1.888
1.888
1.888
1.888
1.884
1.881
1.881
1.881
1.884
1.881
1.881
1.877
1.874
1.874
1.874
1.874
1.874
1.866
1.859
1.848
1.823
1.794
1.754
1.714
1.682
1.664
1.678
1.736
1.859
2.047
2.279
2.528
2.774
2.991
3.139
3.219
3.237
3.248
3.273
3.309
3.320
3.291
3.215
3.107
2.969
2.817
2.669
2.535
2.430
2.351
2.286
2.235
2.192
2.148
2.109
2.065
2.025
1.989
1.949
1.917
1.888
1.863
1.841
1.826
1.819
1.816
1.812
1.808
1.805
1.798
1.794
1.787
1.787
1.787
1.787
1.787
1.787
1.787
1.787
1.783
1.779
1.779
1.779
1.783
1.787
1.790
1.794
1.794
1.798
1.801
1.801
1.801
1.805
1.812
1.812
1.816
1.816
1.816
1.816
1.816
1.816
1.812
1.816
1.816
1.819
1.819
1.823
1.823
1.826
1.830
1.834
1.837
1.841
1.845
1.848
1.852
1.855
1.863
1.866
1.870
1.877
1.884
1.884
1.884
1.888
1.892
1.895
1.902
1.910
1.917
1.921
1.928
1.935
1.942
1.949
1.957
1.968
1.978
1.989
2.000
2.011
2.018
2.025
2.033
2.040
2.051
2.058
2.069
2.076
2.083
2.087
2.087
2.091
2.094
2.101
2.101
2.101
2.101
2.098
2.098
2.098
2.101
2.105
2.109
2.109
2.112
2.105
2.101
2.094
2.083
2.069
2.054
2.036
2.018
2.000
1.982
1.968
1.949
1.931
1.917
1.899
1.881
1.863
1.848
1.834
1.819
1.805
1.794
1.776
1.761
1.747
1.729
1.714
1.700
1.693
1.685
1.678
1.675
1.667
1.664
1.657
1.657
1.653
1.649
1.646
1.642
1.638
1.638
1.638
1.631
1.635
1.635
1.638
1.642
1.646
1.649
1.649
1.649
1.649
1.649
1.649
1.649
1.646
1.646
1.646
1.646
1.649
1.653
1.657
1.660
1.664
1.664
1.664
1.664
1.671
1.675
1.678
1.682
1.685
1.689
1.696
1.696
1.693
1.693
1.689
1.693
1.693
1.696
1.700
1.700
1.704
1.707
1.700
1.696
1.696
1.700
1.704
1.707
1.711
1.714
1.714
1.718
1.718
1.718
1.718
1.718
1.718
1.722
1.725
1.725
1.729
1.736
1.740
1.740
1.740
1.736
1.736
1.736
1.736
1.740
1.747
1.754
1.758
1.761
1.761
1.758
1.758
1.758
1.758
1.761
1.765
1.769
1.772
1.772
1.772
1.772
1.772
1.772
1.776
1.776
1.779
1.783
1.787
1.790
1.790
1.787
1.779
1.776
1.776
1.772
1.772
1.772
1.776
1.776
1.779
1.783
1.787
1.787
1.787
1.790
1.790
1.794
1.794
1.798
1.801
1.798
1.794
1.783
1.772
1.765
1.765
1.769
1.769
1.772
1.776
1.779
1.783
1.790
1.794
1.794
1.794
1.798
1.798
1.794
1.794
1.798
1.798
1.801
1.801
1.805
1.801
1.801
1.798
1.790
1.790
1.790
1.790
1.794
1.798
1.801
1.801
1.798
1.798
1.794
1.794
1.798
1.798
1.798
1.798
1.798
1.801
1.798
1.794
1.790
1.787
1.783
1.783
1.790
1.798
1.805
1.816
1.830
1.837
1.848
1.863
1.874
1.877
1.884
1.884
1.877
1.866
1.855
1.852
1.841
1.841
1.837
1.837
1.841
1.848
1.859
1.870
1.874
1.874
1.874
1.863
1.848
1.837
1.826
1.819
1.816
1.816
1.816
1.816
1.819
1.823
1.823
1.826
1.826
1.830
1.834
1.834
1.834
1.830
1.826
1.823
1.823
1.823
1.826
1.830
1.830
1.834
1.834
1.837
1.841
1.845
1.848
1.845
1.845
1.841
1.837
1.837
1.837
1.837
1.837
1.837
1.841
1.845
1.845
1.845
1.841
1.830
1.816
1.798
1.769
1.740
1.707
1.671
1.638
1.613
1.613
1.657
1.754
1.931
2.170
2.434
2.695
2.930
3.110
3.219
3.252
3.252
3.252
3.270
3.284
3.262
3.194
3.082
2.940
2.781
2.633
2.506
2.405
2.326
2.271
2.221
2.181
2.141
2.105
2.065
2.025
1.975
1.935
1.895
1.859
1.826
1.805
1.787
1.772
1.758
1.747
1.736
1.729
1.729
1.725
1.722
1.725
1.725
1.725
1.725
1.725
1.725
1.729
1.725
1.725
1.729
1.736
1.740
1.747
1.751
1.754
1.754
1.751
1.747
1.747
1.747
1.747
1.747
1.751
1.754
1.761
1.761
1.765
1.772
1.776
1.772
1.776
1.779
1.779
1.787
1.790
1.794
1.801
1.805
1.816
1.816
1.816
1.816
1.812
1.816
1.819
1.823
1.826
1.834
1.841
1.852
1.852
1.855
1.855
1.859
1.863
1.870
1.877
1.884
1.895
1.902
1.913
1.921
1.928
1.939
1.942
1.946
1.953
1.957
1.968
1.975
1.986
1.996
2.007
2.018
2.025
2.033
2.036
2.040
2.043
2.051
2.054
2.062
2.069
2.072
2.076
2.083
2.087
2.091
2.091
2.091
2.087
2.083
2.080
2.072
2.065
2.058
2.051
2.043
2.033
2.022
2.011
1.993
1.978
1.960
1.935
1.913
1.888
1.870
1.848
1.826
1.808
1.790
1.772
1.758
1.743
1.729
1.714
1.696
1.682
1.667
1.653
1.642
1.635
1.628
1.620
1.617
1.609
1.609
1.606
1.606
1.602
1.599
1.599
1.595
1.591
1.588
1.588
1.588
1.588
1.588
1.588
1.591
1.595
1.599
1.599
1.599
1.599
1.599
1.599
1.602
1.606
1.606
1.606
1.606
1.606
1.606
1.606
1.609
1.609
1.609
1.613
1.617
1.620
1.628
1.635
1.638
1.642
1.646
1.649
1.646
1.646
1.646
1.646
1.646
1.646
1.649
1.653
1.653
1.657
1.664
1.667
1.671
1.678
1.678
1.682
1.685
1.689
1.693
1.696
1.700
1.704
1.707
1.707
1.707
1.707
1.707
1.711
1.711
1.714
1.714
1.714
1.707
1.704
1.700
1.700
1.704
1.704
1.704
1.711
1.714
1.718
1.725
1.725
1.729
1.732
1.732
1.725
1.722
1.718
1.718
1.722
1.725
1.729
1.725
1.729
1.736
1.736
1.740
1.743
1.747
1.747
1.751
1.751
1.754
1.751
1.751
1.751
1.751
1.751
1.754
1.754
1.758
1.758
1.761
1.765
1.765
1.765
1.772
1.772
1.776
1.776
1.772
1.772
1.772
1.769
1.769
1.761
1.754
1.747
1.747
1.743
1.747
1.751
1.758
1.765
1.772
1.776
1.776
1.783
1.783
1.787
1.787
1.787
1.787
1.787
1.790
1.790
1.787
1.783
1.776
1.772
1.776
1.779
1.787
1.794
1.798
1.801
1.805
1.801
1.798
1.794
1.790
1.787
1.783
1.783
1.787
1.790
1.794
1.801
1.798
1.798
1.801
1.805
1.805
1.805
1.805
1.801
1.798
1.794
1.794
1.794
1.794
1.794
1.794
1.794
1.798
1.798
1.794
1.794
1.794
1.790
1.787
1.783
1.783
1.787
1.787
1.794
1.798
1.801
1.808
1.819
1.826
1.834
1.845
1.852
1.855
1.859
1.863
1.866
1.859
1.855
1.848
1.834
1.826
1.826
1.830
1.834
1.841
1.848
1.855
1.863
1.866
1.870
1.866
1.863
1.855
1.845
1.834
1.819
1.812
1.805
1.805
1.805
1.808
1.812
1.816
1.823
1.826
1.826
1.826
1.826
1.826
1.826
1.830
1.830
1.830
1.830
1.830
1.830
1.834
1.837
1.841
1.837
1.837
1.834
1.826
1.823
1.819
1.816
1.816
1.816
1.819
1.823
1.830
1.834
1.841
1.841
1.834
1.830
1.819
1.812
1.798
1.779
1.754
1.722
1.685
1.653
1.631
1.635
1.685
1.783
1.946
2.159
2.402
2.658
2.912
3.121
3.255
3.317
3.356
3.393
3.429
3.450
3.440
3.385
3.291
3.154
2.977
2.781
2.590
2.423
2.297
2.199
2.134
2.087
2.054
2.022
1.993
1.964
1.924
1.888
1.852
1.819
1.794
1.776
1.761
1.751
1.743
1.736
1.732
1.725
1.725
1.729
1.732
1.732
1.732
1.732
1.729
1.725
1.722
1.718
1.718
1.722
1.729
1.732
1.736
1.740
1.740
1.740
1.736
1.736
1.736
1.732
1.732
1.732
1.740
1.743
1.751
1.754
1.758
1.758
1.761
1.761
1.761
1.758
1.754
1.751
1.751
1.754
1.754
1.754
1.758
1.761
1.765
1.772
1.776
1.779
1.787
1.790
1.798
1.798
1.798
1.798
1.805
1.805
1.808
1.816
1.823
1.834
1.848
1.863
1.874
1.884
1.892
1.899
1.895
1.892
1.888
1.895
1.902
1.913
1.921
1.931
1.942
1.946
1.953
1.953
1.957
1.964
1.971
1.982
1.993
2.004
2.015
2.025
2.033
2.043
2.047
2.047
2.043
2.040
2.040
2.040
2.040
2.040
2.040
2.040
2.033
2.022
2.018
2.015
2.011
2.004
1.996
1.986
1.978
1.968
1.957
1.939
1.924
1.906
1.888
1.870
1.848
1.826
1.805
1.779
1.758
1.740
1.722
1.711
1.700
1.693
1.685
1.675
1.664
1.657
1.653
1.649
1.649
1.638
1.635
1.631
1.631
1.631
1.631
1.631
1.628
1.628
1.624
1.624
1.617
1.613
1.613
1.613
1.617
1.620
1.624
1.624
1.628
1.628
1.628
1.631
1.635
1.638
1.642
1.642
1.646
1.646
1.649
1.649
1.657
1.657
1.657
1.660
1.664
1.664
1.667
1.667
1.667
1.664
1.660
1.664
1.664
1.667
1.671
1.675
1.678
1.682
1.685
1.689
1.685
1.685
1.685
1.685
1.685
1.685
1.689
1.696
1.704
1.707
1.711
1.714
1.714
1.718
1.718
1.718
1.714
1.707
1.707
1.707
1.707
1.711
1.711
1.714
1.722
1.725
1.732
1.736
1.743
1.743
1.743
1.743
1.740
1.740
1.743
1.743
1.740
1.736
1.736
1.736
1.743
1.747
1.754
1.758
1.758
1.761
1.761
1.761
1.761
1.765
1.765
1.765
1.765
1.761
1.761
1.758
1.761
1.758
1.758
1.761
1.765
1.769
1.772
1.776
1.772
1.772
1.772
1.772
1.769
1.765
1.769
1.772
1.776
1.776
1.779
1.783
1.783
1.779
1.779
1.779
1.776
1.779
1.779
1.779
1.783
1.787
1.787
1.787
1.794
1.794
1.794
1.798
1.801
1.808
1.816
1.819
1.823
1.826
1.826
1.826
1.816
1.801
1.790
1.783
1.783
1.787
1.794
1.801
1.805
1.812
1.816
1.816
1.816
1.812
1.808
1.805
1.801
1.801
1.801
1.801
1.801
1.805
1.801
1.805
1.808
1.808
1.808
1.808
1.812
1.812
1.819
1.823
1.830
1.830
1.830
1.830
1.830
1.830
1.830
1.830
1.830
1.826
1.826
1.826
1.819
1.816
1.812
1.812
1.808
1.808
1.812
1.812
1.812
1.812
1.812
1.808
1.808
1.805
1.808
1.812
1.819
1.823
1.823
1.826
1.834
1.837
1.841
1.845
1.848
1.855
1.859
1.866
1.870
1.870
1.870
1.866
1.863
1.859
1.859
1.855
1.855
1.859
1.863
1.870
1.874
1.877
1.877
1.870
1.863
1.859
1.852
1.845
1.837
1.837
1.834
1.834
1.830
1.834
1.834
1.837
1.841
1.845
1.845
1.845
1.841
1.841
1.837
1.841
1.841
1.837
1.837
1.837
1.841
1.845
1.845
1.848
1.855
1.859
1.866
1.863
1.863
1.859
1.855
1.852
1.852
1.852
1.855
1.859
1.859
1.866
1.863
1.866
1.866
1.863
1.859
1.848
1.834
1.808
1.779
1.743
1.707
1.675
1.671
1.704
1.787
1.935
2.141
2.376
2.626
2.868
3.067
3.194
3.244
3.266
3.291
3.327
3.356
3.349
3.299
3.208
3.085
2.926
2.749
2.582
2.445
2.340
2.261
2.199
2.156
2.119
2.087
2.051
2.015
1.968
1.928
1.892
1.863
1.841
1.823
1.816
1.808
1.805
1.798
1.790
1.779
1.772
1.769
1.765
1.761
1.758
1.754
1.754
1.754
1.754
1.758
1.758
1.761
1.761
1.765
1.769
1.769
1.769
1.769
1.769
1.769
1.769
1.765
1.765
1.765
1.765
1.765
1.769
1.772
1.776
1.779
1.783
1.783
1.787
1.790
1.794
1.798
1.801
1.808
1.816
1.823
1.830
1.834
1.837
1.834
1.830
1.830
1.830
1.834
1.841
1.845
1.848
1.852
1.859
1.859
1.863
1.866
1.870
1.877
1.884
1.888
1.892
1.899
1.906
1.913
1.921
1.924
1.931
1.939
1.946
1.953
1.964
1.978
1.989
2.000
2.011
2.015
2.022
2.029
2.036
2.040
2.047
2.054
2.058
2.065
2.076
2.087
2.091
2.098
2.101
2.105
2.109
2.105
2.105
2.098
2.094
2.094
2.087
2.076
2.069
2.062
2.054
2.043
2.036
2.022
2.007
1.989
1.978
1.960
1.942
1.928
1.913
1.895
1.881
1.859
1.841
1.819
1.798
1.783
1.765
1.754
1.743
1.736
1.725
1.718
1.704
1.693
1.685
1.678
1.678
1.671
1.667
1.664
1.664
1.664
1.664
1.664
1.667
1.664
1.664
1.660
1.653
1.649
1.646
1.646
1.642
1.642
1.638
1.638
1.638
1.642
1.646
1.646
1.653
1.657
1.664
1.667
1.667
1.667
1.667
1.671
1.675
1.675
1.678
1.682
1.689
1.693
1.696
1.696
1.696
1.693
1.685
1.682
1.671
1.667
1.667
1.671
1.678
1.685
1.693
1.704
1.707
1.714
1.718
1.722
1.725
1.729
1.732
1.736
1.736
1.736
1.732
1.729
1.729
1.729
1.732
1.736
1.743
1.747
1.754
1.758
1.758
1.758
1.758
1.758
1.761
1.758
1.758
1.761
1.765
1.765
1.765
1.765
1.761
1.761
1.761
1.761
1.765
1.769
1.776
1.779
1.783
1.787
1.790
1.794
1.794
1.794
1.787
1.783
1.779
1.776
1.776
1.776
1.779
1.783
1.787
1.794
1.798
1.798
1.801
1.801
1.801
1.801
1.801
1.801
1.801
1.801
1.801
1.805
1.805
1.805
1.805
1.805
1.801
1.801
1.801
1.801
1.798
1.798
1.801
1.801
1.801
1.805
1.808
1.812
1.816
1.816
1.816
1.819
1.823
1.819
1.819
1.819
1.819
1.823
1.819
1.816
1.816
1.812
1.812
1.816
1.816
1.819
1.823
1.826
1.826
1.823
1.823
1.826
1.826
1.826
1.830
1.823
1.823
1.823
1.823
1.826
1.834
1.841
1.841
1.841
1.845
1.848
1.848
1.848
1.845
1.845
1.845
1.848
1.848
1.848
1.848
1.848
1.848
1.841
1.834
1.830
1.830
1.834
1.837
1.841
1.841
1.841
1.841
1.841
1.837
1.837
1.841
1.841
1.841
1.837
1.834
1.837
1.841
1.845
1.852
1.859
1.866
1.877
1.884
1.888
1.888
1.892
1.892
1.892
1.895
1.892
1.892
1.884
1.881
1.877
1.874
1.877
1.877
1.884
1.884
1.888
1.884
1.877
1.874
1.870
1.863
1.855
1.848
1.845
1.841
1.837
1.841
1.841
1.845
1.848
1.855
1.859
1.859
1.859
1.859
1.859
1.859
1.859
1.855
1.855
1.852
1.845
1.845
1.845
1.848
1.852
1.852
1.855
1.855
1.855
1.855
1.855
1.859
1.863
1.866
1.870
1.874
1.881
1.884
1.884
1.884
1.884
1.884
1.881
1.874
1.866
1.852
1.834
1.816
1.790
1.761
1.729
1.693
1.660
1.642
1.649
1.700
1.808
1.993
2.228
2.492
2.745
2.977
3.143
3.230
3.255
3.244
3.244
3.262
3.270
3.248
3.176
3.060
2.919
2.763
2.622
2.499
2.402
2.326
2.271
2.228
2.192
2.159
2.119
2.080
2.036
1.993
1.953
1.913
1.877
1.845
1.819
1.808
1.794
1.787
1.779
1.776
1.772
1.769
1.769
1.769
1.769
1.769
1.769
1.765
1.761
1.758
1.754
1.754
1.751
1.754
1.758
1.761
1.765
1.772
1.772
1.772
1.772
1.772
1.769
1.772
1.772
1.776
1.776
1.779
1.779
1.783
1.787
1.794
1.798
1.798
1.798
1.805
1.808
1.812
1.819
1.819
1.816
1.812
1.816
1.823
1.826
1.834
1.837
1.841
1.845
1.852
1.852
1.855
1.859
1.866
1.874
1.881
1.892
1.899
1.902
1.906
1.910
1.917
1.924
1.928
1.935
1.939
1.942
1.949
1.957
1.960
1.964
1.971
1.978
1.989
2.000
2.007
2.018
2.025
2.033
2.036
2.043
2.043
2.051
2.051
2.054
2.054
2.062
2.069
2.072
2.080
2.087
2.094
2.098
2.101
2.098
2.094
2.091
2.087
2.080
2.072
2.065
2.054
2.043
2.029
2.011
1.989
1.968
1.949
1.928
1.906
1.888
1.866
1.845
1.823
1.805
1.783
1.761
1.736
1.714
1.696
1.675
1.657
1.638
1.617
1.595
1.577
1.562
1.552
1.544
1.544
1.548
1.552
1.555
1.555
1.552
1.541
1.537
1.530
1.526
1.526
1.526
1.534
1.537
1.537
1.541
1.541
1.541
1.541
1.541
1.541
1.541
1.541
1.534
1.530
1.526
1.523
1.519
1.519
1.515
1.515
1.515
1.515
1.512
1.508
1.505
1.497
1.494
1.494
1.497
1.497
1.505
1.512
1.515
1.515
1.519
1.526
1.534
1.537
1.544
1.548
1.544
1.541
1.541
1.534
1.526
1.519
1.512
1.508
1.508
1.512
1.519
1.523
1.526
1.526
1.526
1.523
1.523
1.519
1.523
1.526
1.530
1.534
1.530
1.526
1.523
1.519
1.515
1.512
1.512
1.508
1.508
1.508
1.505
1.505
1.505
1.508
1.508
1.512
1.512
1.508
1.505
1.497
1.490
1.483
1.476
1.472
1.468
1.468
1.468
1.468
1.468
1.465
1.461
1.461
1.461
1.458
1.454
1.454
1.450
1.450
1.450
1.450
1.447
1.447
1.443
1.439
1.432
1.425
1.418
1.418
1.418
1.421
1.421
1.414
1.407
1.400
1.392
1.389
1.385
1.382
1.382
1.382
1.378
1.374
1.367
1.360
1.360
1.360
1.360
1.356
1.349
1.342
1.335
1.327
1.324
1.317
1.317
1.320
1.317
1.320
1.320
1.324
1.324
1.320
1.317
1.313
1.306
1.298
1.288
1.277
1.273
1.270
1.270
1.270
1.266
1.262
1.259
1.255
1.251
1.248
1.244
1.241
1.241
1.241
1.241
1.237
1.237
1.237
1.233
1.233
1.226
1.226
1.222
1.219
1.215
1.215
1.212
1.208
1.204
1.197
1.197
1.194
1.186
1.183
1.175
1.168
1.157
1.150
1.143
1.139
1.132
1.128
1.121
1.121
1.121
1.121
1.121
1.121
1.125
1.125
1.125
1.121
1.121
1.121
1.121
1.121
1.121
1.125
1.125
1.128
1.132
1.132
1.128
1.121
1.110
1.100
1.089
1.081
1.074
1.071
1.071
1.071
1.074
1.078
1.078
1.074
1.071
1.060
1.049
1.034
1.024
1.013
1.005
1.005
1.005
0.998
0.991
0.980
0.973
0.969
0.969
0.966
0.966
0.962
0.962
0.959
0.951
0.951
0.951
0.951
0.951
0.951
0.948
0.944
0.944
0.944
0.937
0.933
0.926
0.922
0.915
0.908
0.901
0.897
0.893
0.890
0.890
0.882
0.882
0.882
0.882
0.879
0.868
0.861
0.846
0.828
0.799
0.767
0.720
0.676
0.640
0.626
0.651
0.727
0.868
1.081
1.331
1.584
1.834
2.033
2.159
2.213
2.224
2.235
2.264
2.293
2.293
2.246
2.163
2.040
1.884
1.718
1.562
1.429
1.313
1.222
1.154
1.100
1.056
1.016
0.973
0.929
0.890
0.846
0.803
0.767
0.734
0.709
0.691
0.673
0.662
0.651
0.640
0.637
0.629
0.626
0.622
0.619
0.615
0.611
0.604
0.600
0.593
0.586
0.582
0.582
0.582
0.582
0.586
0.586
0.590
0.593
0.593
0.597
0.604
0.608
0.608
0.608
0.604
0.600
0.597
0.590
0.590
0.590
0.590
0.590
0.590
0.590
0.593
0.597
0.597
0.600
0.604
0.611
0.615
0.619
0.619
0.619
0.619
0.619
0.619
0.619
0.626
0.629
0.633
0.637
0.637
0.637
0.640
0.644
0.651
0.658
0.665
0.673
0.680
0.687
0.694
0.698
0.705
0.713
0.723
0.734
0.745
0.756
0.763
0.774
0.781
0.785
0.788
0.792
0.796
0.803
0.810
0.817
0.825
0.828
0.832
0.836
0.843
0.854
0.861
0.872
0.879
0.882
0.882
0.886
0.886
0.890
0.893
0.893
0.893
0.893
0.886
0.879
0.872
0.864
0.854
0.839
0.825
0.810
0.788
0.774
0.752
0.734
0.720
0.702
0.687
0.673
0.655
0.637
0.615
0.593
0.575
0.561
0.542
0.528
0.514
0.499
0.488
0.477
0.470
0.459
0.456
0.449
0.449
0.445
0.445
0.445
0.445
0.445
0.449
0.449
0.445
0.438
0.434
0.430
0.430
0.434
0.434
0.438
0.445
0.452
0.459
0.463
0.463
0.463
0.463
0.459
0.459
0.463
0.463
0.467
0.474
0.477
0.481
0.485
0.492
0.499
0.503
0.506
0.510
0.514
0.517
0.524
0.528
0.532
0.535
0.532
0.532
0.535
0.539
0.542
0.546
0.550
0.557
0.561
0.568
0.572
0.579
0.579
0.579
0.579
0.579
0.579
0.575
0.579
0.582
0.586
0.593
0.600
0.608
0.611
0.615
0.622
0.622
0.626
0.633
0.633
0.637
0.637
0.644
0.647
0.655
0.665
0.676
0.684
0.691
0.698
0.705
0.713
0.716
0.720
0.723
0.727
0.731
0.731
0.734
0.734
0.738
0.741
0.745
0.749
0.756
0.759
0.767
0.778
0.785
0.796
0.803
0.806
0.810
0.810
0.810
0.806
0.803
0.806
0.814
0.825
0.836
0.846
0.854
0.861
0.868
0.875
0.882
0.890
0.897
0.904
0.908
0.908
0.908
0.908
0.908
0.911
0.915
0.919
0.922
0.926
0.933
0.937
0.944
0.955
0.962
0.969
0.973
0.977
0.977
0.980
0.980
0.984
0.987
0.991
0.995
0.995
0.995
0.998
1.002
1.005
1.005
1.009
1.005
1.005
1.009
1.009
1.013
1.020
1.027
1.034
1.042
1.052
1.060
1.063
1.067
1.067
1.067
1.067
1.063
1.060
1.056
1.056
1.063
1.071
1.078
1.085
1.089
1.092
1.096
1.100
1.103
1.107
1.110
1.110
1.114
1.118
1.121
1.128
1.132
1.132
1.132
1.136
1.136
1.139
1.139
1.147
1.150
1.161
1.165
1.172
1.175
1.179
1.183
1.190
1.194
1.201
1.208
1.208
